0.594412267208
1.34719729424
0.926008164883
0.871697485447
1.06434559822
0.910821080208
1.16987979412
0.905540287495
1.14966821671
1.11913073063
0.490126460791
1.07004976273
0.796738862991
0.862928926945
1.18707418442
1.30080187321
1.02528584003
1.11030352116
1.55975878239
0.652666330338
0.796953439713
1.14789259434
0.772751390934
1.160577178
0.711869955063
1.12037062645
0.901790261269
1.33807492256
1.0032043457
1.12409257889
0.658684849739
1.29757630825
1.06115329266
0.808363556862
1.0893253088
1.12146806717
1.2428933382
0.753498017788
0.989506304264
1.03348445892
0.388120889664
1.28885054588
1.10338163376
0.93679869175
1.03363955021
0.843313932419
0.586310744286
1.36004734039
0.919440865517
0.881442010403
1.05920135975
0.918750584126
1.170358181
0.904898226261
1.15111935139
1.11628043652
0.482927232981
1.07804882526
0.789962172508
0.864613175392
1.19317293167
1.29299020767
1.02304041386
1.11118721962
1.5533645153
0.649751424789
0.787015140057
1.15561056137
0.761112034321
1.17150855064
0.700070023537
1.1301766634
0.897501707077
1.33936679363
0.990942835808
1.12762784958
0.649111628532
1.29843473434
1.05377233028
0.800690770149
1.08686721325
1.11416578293
1.23088526726
0.74542671442
0.979835867882
1.02135312557
0.379981279373
1.27109670639
1.08317279816
0.934940814972
1.01838719845
0.833995223045
0.571087956429
1.35147583485
0.892711341381
0.879197716713
1.02879178524
0.912823498249
1.13841462135
0.896614789963
1.12889111042
1.07765674591
0.466263353825
1.04048287868
0.746734619141
0.852147519588
1.15825426579
1.2278727293
1.00068306923
1.07083547115
1.48614990711
0.603339135647
0.737419188023
1.07239222527
0.67633253336
1.03303992748
0.456796646118
1.5604557991
0.880740821362
1.08179926872
0.824770689011
0.903819441795
0.475821375847
0.977359175682
0.740747392178
0.552352309227
0.836526632309
0.775826573372
0.981679201126
0.489685356617
0.608377993107
0.756088614464
0.259508579969
0.882476210594
0.658088088036
0.71791857481
0.805140256882
0.633393287659
0.367540538311
1.09049487114
0.521345436573
0.704430520535
0.644105136395
0.757399976254
0.826072514057
0.775429308414
0.855683386326
0.699245810509
0.230598255992
0.686495065689
0.395912706852
0.633923172951
0.857202589512
0.786523461342
0.914261162281
0.840814232826
1.2107129097
0.364852368832
0.495586305857
0.81239336729
0.476306319237
0.881497979164
0.375830054283
0.702029824257
0.820361614227
1.05509495735
0.681832969189
0.870232701302
0.408841401339
0.994778037071
0.706172049046
0.530888617039
0.82533967495
0.731217861176
0.946931481361
0.464359104633
0.566375315189
0.705114603043
0.272162348032
0.885450303555
0.649712622166
0.679076552391
0.804000556469
0.58735370636
0.357539147139
1.09583902359
0.515636503696
0.706170976162
0.615501582623
0.728901088238
0.782521188259
0.75196158886
0.820302903652
0.666835606098
0.21368829906
0.680968105793
0.371433645487
0.615764975548
0.861670255661
0.766216993332
0.828727126122
0.742129802704
1.14360952377
0.360758900642
0.476157009602
0.80990755558
0.453850567341
0.860036671162
0.346334815025
0.694026052952
0.784866631031
1.02383303642
0.669532179832
0.871014356613
0.390263557434
0.977648079395
0.677494764328
0.530297577381
0.800504386425
0.696892857552
0.916784822941
0.440320938826
0.524756789207
0.669939756393
0.260957330465
0.853911161423
0.632067203522
0.624190628529
0.795839607716
0.54725342989
0.341827273369
1.04846405983
0.487163543701
0.701351463795
0.612776637077
0.698764741421
0.747443020344
0.731269836426
0.782997608185
0.650204896927
0.210636213422
0.668614983559
0.356982767582
0.61305731535
0.851900577545
0.745689213276
0.815052807331
0.696315824986
1.10131347179
0.352147251368
0.449531525373
0.831852436066
0.451394796371
0.833832263947
0.343058437109
0.643494844437
0.743261694908
0.988400101662
0.680436730385
0.837901175022
0.381102800369
0.94969534874
0.657165527344
0.52439147234
0.766031563282
0.658520519733
0.922694861889
0.42579087615
0.512772500515
0.657361507416
0.269610702991
0.833645880222
0.635222375393
0.598779320717
0.795934319496
0.539178788662
0.32278290391
0.986118018627
0.483897924423
0.669079124928
0.610342919827
0.660057604313
0.728867948055
0.709374547005
0.755474686623
0.63761639595
0.210536301136
0.646787881851
0.357100903988
0.591185331345
0.824901878834
0.728986501694
0.798712551594
0.675204753876
1.0844180584
0.350475281477
0.431588053703
0.930481314659
0.460961431265
0.820824146271
0.336045086384
0.61360758543
0.724339723587
0.966225266457
0.69181895256
0.790187358856
0.37847802043
0.90822905302
0.642247915268
0.509452402592
0.73887270689
0.634001493454
0.913323044777
0.434461981058
0.502898812294
0.635901868343
0.288114964962
0.828138530254
0.638647675514
0.583108842373
0.785943984985
0.534005761147
0.313546448946
0.955538868904
0.481313467026
0.644331991673
0.614304959774
0.63653677702
0.72061920166
0.697597682476
0.734084904194
0.629688024521
0.212344765663
0.636258900166
0.361435234547
0.581799447536
0.803559660912
0.721453547478
0.789994001389
0.657770514488
1.08119082451
0.351035773754
0.423052430153
0.952250242233
0.459186911583
0.809147417545
0.335582703352
0.6026725173
0.705246508121
0.948337733746
0.694988191128
0.773350834846
0.377714514732
0.898756861687
0.640926837921
0.503255784512
0.730608224869
0.622419714928
0.892253875732
0.426641702652
0.496157467365
0.630422770977
0.297503858805
0.814810872078
0.638878285885
0.565589666367
0.778758525848
0.53387761116
0.310651063919
0.934431791306
0.481962203979
0.622069597244
0.615286886692
0.625265479088
0.713029801846
0.688374876976
0.715539455414
0.626721203327
0.210575252771
0.634342432022
0.367436110973
0.569209456444
0.794042527676
0.717640221119
0.779852151871
0.634762704372
1.07365739346
0.357218384743
0.421086668968
0.913812935352
0.455737799406
0.796546459198
0.335255861282
0.59067261219
0.695500969887
0.93426835537
0.70219796896
0.760594189167
0.376236736774
0.893317580223
0.640702366829
0.498816370964
0.721979081631
0.608084440231
0.894609391689
0.4252576828
0.49290856719
0.630588591099
0.300356417894
0.806770503521
0.63460791111
0.553487956524
0.774204552174
0.532174885273
0.310919612646
0.920494258404
0.482234567404
0.610725045204
0.611662149429
0.614297628403
0.710664927959
0.681839287281
0.702769637108
0.624616980553
0.209328368306
0.630871117115
0.372421681881
0.560310304165
0.783506929874
0.71435546875
0.772556066513
0.62215423584
1.06470799446
0.364723622799
0.420884281397
0.883444130421
0.453784793615
0.785823523998
0.334158211946
0.576306581497
0.679119467735
0.926420450211
0.711066901684
0.743219196796
0.376515895128
0.881022810936
0.633957266808
0.495623856783
0.71529507637
0.600640237331
0.8898473382
0.410817950964
0.483678370714
0.630879998207
0.31095033884
0.793674647808
0.628848314285
0.543462395668
0.772829890251
0.529578268528
0.311178356409
0.909421026707
0.481171876192
0.60062277317
0.6066609025
0.611409783363
0.710339725018
0.673101246357
0.694142758846
0.623584270477
0.209200054407
0.629360318184
0.373251110315
0.557250201702
0.776194155216
0.713346123695
0.764854133129
0.610220551491
1.05531597137
0.363908678293
0.419554442167
0.873911619186
0.451400905848
0.774598538876
0.333931654692
0.566852867603
0.668407738209
0.917220234871
0.721170663834
0.722302556038
0.378734588623
0.870012462139
0.627238690853
0.492796868086
0.710751950741
0.594810664654
0.875802159309
0.407244235277
0.481904983521
0.637126326561
0.306713342667
0.78146469593
0.627949535847
0.533576726913
0.764707028866
0.529739022255
0.310595631599
0.900661289692
0.4808113873
0.588279485703
0.597269535065
0.604996085167
0.712019443512
0.664750754833
0.687442958355
0.616388261318
0.209482118487
0.62286490202
0.37256103754
0.551906526089
0.77093398571
0.710012614727
0.759170055389
0.60110014677
1.04831790924
0.360280960798
0.418952971697
0.866652846336
0.447429567575
0.762180328369
0.33502933383
0.557215511799
0.657301843166
0.909949064255
0.72889649868
0.709884464741
0.380452126265
0.858981907368
0.620470583439
0.491828739643
0.704967498779
0.58766156435
0.864017307758
0.40861672163
0.475221335888
0.631401062012
0.303937077522
0.775577008724
0.628076136112
0.528779089451
0.759732186794
0.527237713337
0.310229837894
0.892208099365
0.480615705252
0.577026188374
0.58885037899
0.598041892052
0.711933732033
0.659233987331
0.679039180279
0.612861037254
0.210737839341
0.620194911957
0.372518122196
0.546796917915
0.766417920589
0.706937551498
0.752940833569
0.58829087019
1.04416668415
0.361555546522
0.416090577841
0.850849092007
0.443531304598
0.752321600914
0.335430800915
0.552048504353
0.644676029682
0.905040442944
0.732758879662
0.691146373749
0.382035285234
0.8486546278
0.617347478867
0.491327166557
0.69977837801
0.581955015659
0.855052173138
0.408591389656
0.467115014791
0.627884566784
0.300672024488
0.770084857941
0.630015432835
0.520713210106
0.75238609314
0.523633718491
0.308641850948
0.887277781963
0.478761911392
0.568321168423
0.584296345711
0.586631000042
0.710266470909
0.655133485794
0.674393594265
0.609852612019
0.209392622113
0.616798341274
0.370338737965
0.54258710146
0.759608864784
0.706185996532
0.748886406422
0.580651462078
1.03130567074
0.361619561911
0.415218889713
0.848737180233
0.444514662027
0.745120823383
0.336288005114
0.542516946793
0.635786831379
0.894855499268
0.730485379696
0.677653431892
0.382224202156
0.845424890518
0.613339662552
0.488423228264
0.695925831795
0.573041677475
0.840239405632
0.395806878805
0.453479528427
0.628627181053
0.301467120647
0.767065227032
0.625903248787
0.514952778816
0.745077848434
0.51624661684
0.309668809175
0.884391725063
0.480087131262
0.559091091156
0.573712527752
0.577905476093
0.713595032692
0.650643765926
0.667695939541
0.606474220753
0.210325792432
0.608168244362
0.366821974516
0.539406955242
0.753604054451
0.706830203533
0.741676926613
0.567155897617
1.02764356136
0.36446967721
0.415841519833
0.837445735931
0.443306267262
0.734333515167
0.338505357504
0.534513473511
0.620813012123
0.887919664383
0.728967905045
0.666206598282
0.381561398506
0.836782753468
0.609436929226
0.490866929293
0.687717437744
0.565084934235
0.83075606823
0.392274260521
0.44382789731
0.630209445953
0.301184087992
0.764692664146
0.620185315609
0.513640344143
0.740012347698
0.512709617615
0.310188114643
0.877506494522
0.473916888237
0.551361143589
0.571757078171
0.568732380867
0.708836376667
0.649336695671
0.661756515503
0.611975610256
0.20964178443
0.607558429241
0.362610667944
0.530566334724
0.748029530048
0.706245064735
0.740512549877
0.557704865932
1.01444506645
0.370596498251
0.412534952164
0.819919645786
0.443150669336
0.724314272404
0.338908702135
0.529496073723
0.612257897854
0.879107236862
0.717600107193
0.654408693314
0.380640745163
0.828386127949
0.60929441452
0.487639158964
0.67918741703
0.55500048399
0.818939447403
0.389306932688
0.432786852121
0.636340379715
0.298779368401
0.763429999352
0.61489790678
0.50528883934
0.738009214401
0.509904325008
0.310679197311
0.872728347778
0.46896442771
0.54174041748
0.56963789463
0.565766811371
0.705473959446
0.647732019424
0.659452438354
0.611047565937
0.208930060267
0.59962272644
0.359163373709
0.525640845299
0.739576280117
0.707049489021
0.73390173912
0.547595202923
1.00524663925
0.377870023251
0.408145606518
0.812857031822
0.445899516344
0.720334649086
0.334153026342
0.523239314556
0.603085696697
0.872360765934
0.708495497704
0.64374601841
0.382506817579
0.822746217251
0.607293009758
0.487016677856
0.670709252357
0.545702815056
0.808777689934
0.39161002636
0.420437932014
0.635771334171
0.294240087271
0.765998542309
0.603185415268
0.504811227322
0.735894382
0.506153345108
0.30982157588
0.876720786095
0.461691319942
0.539636552334
0.557483077049
0.556500077248
0.704846322536
0.644630432129
0.657466590405
0.604511618614
0.208281472325
0.594891786575
0.356103092432
0.519836604595
0.733571648598
0.703628182411
0.729227781296
0.545663297176
0.997462630272
0.379115283489
0.406910061836
0.807959496975
0.448029339314
0.715204775333
0.331385374069
0.518193185329
0.594805002213
0.867233455181
0.70387083292
0.634402096272
0.384027183056
0.814144313335
0.602359831333
0.486371308565
0.660812973976
0.536747872829
0.801964938641
0.386253654957
0.418708652258
0.633445978165
0.291044235229
0.763374567032
0.597584486008
0.499524533749
0.732105731964
0.505037009716
0.309282451868
0.877959489822
0.45663318038
0.533938467503
0.555703520775
0.555570840836
0.697498083115
0.641868114471
0.647657155991
0.606292426586
0.205517470837
0.598472356796
0.353485018015
0.515756487846
0.729895353317
0.702351093292
0.725125193596
0.53765052557
0.999967396259
0.375794053078
0.410204738379
0.797442615032
0.453289568424
0.711641669273
0.327796846628
0.514923334122
0.587929666042
0.862380087376
0.70216023922
0.630374133587
0.383074522018
0.806789875031
0.603086769581
0.487709134817
0.657560944557
0.535928785801
0.794655561447
0.390532523394
0.417553722858
0.634535014629
0.288723766804
0.769660413265
0.588288903236
0.498556286097
0.730645298958
0.499482125044
0.307926535606
0.881075918674
0.451550871134
0.533127188683
0.543370604515
0.544003307819
0.696817755699
0.636114895344
0.641493916512
0.601631760597
0.205218464136
0.59645986557
0.352523416281
0.509630382061
0.723676860332
0.704688727856
0.720818638802
0.540970802307
0.998800635338
0.371169805527
0.406102538109
0.794331073761
0.453546255827
0.705377519131
0.325755983591
0.511196613312
0.584719181061
0.856471955776
0.696921944618
0.627986133099
0.381509691477
0.803288280964
0.601600885391
0.485816150904
0.650251626968
0.527333199978
0.799044549465
0.393351137638
0.41913613677
0.630438148975
0.281134039164
0.756529450417
0.583767473698
0.494211643934
0.731585383415
0.498067259789
0.306668639183
0.876211166382
0.450184851885
0.529859423637
0.546001970768
0.54331356287
0.688452780247
0.653395235538
0.635393321514
0.599820554256
0.199771493673
0.59400832653
0.344685196877
0.507094323635
0.723108649254
0.703466653824
0.717642664909
0.539785921574
0.98442876339
0.373204052448
0.408485412598
0.782421171665
0.450722932816
0.70641630888
0.322188466787
0.505034923553
0.577559113503
0.852541983128
0.699064970016
0.622884452343
0.381546109915
0.798292517662
0.597805738449
0.487395733595
0.64623773098
0.525092542171
0.78858011961
0.391308873892
0.419190555811
0.634304642677
0.28032797575
0.754046082497
0.57897567749
0.493889838457
0.728203892708
0.496748685837
0.307578265667
0.880599796772
0.447516471148
0.529884040356
0.53843832016
0.537904679775
0.687828838825
0.634625792503
0.626111447811
0.604245305061
0.20081295073
0.594358980656
0.348885804415
0.505331814289
0.720332205296
0.701748967171
0.706708133221
0.532682597637
0.980157017708
0.392910957336
0.403533160686
0.781244754791
0.441927999258
0.712872922421
0.315640449524
0.498009800911
0.57130086422
0.847247898579
0.687561035156
0.621642827988
0.380097270012
0.795367360115
0.593481123447
0.484254837036
0.646228730679
0.5245693326
0.792253136635
0.391688585281
0.40956401825
0.63104814291
0.281606584787
0.760903716087
0.585359156132
0.491461455822
0.724385380745
0.496323466301
0.305265665054
0.879352271557
0.443837404251
0.526682496071
0.533604443073
0.529651641846
0.692644476891
0.632668554783
0.629803478718
0.586980223656
0.202626764774
0.594464838505
0.350535035133
0.500038921833
0.70998442173
0.703840494156
0.702167987823
0.534348964691
0.987804889679
0.417818784714
0.414098501205
0.773970782757
0.448813855648
0.709385454655
0.327583998442
0.49492675066
0.571473181248
0.847595572472
0.675473928452
0.617408275604
0.380607068539
0.790709674358
0.591189205647
0.484008103609
0.641650080681
0.51842135191
0.781317055225
0.387105941772
0.4147965312
0.625462472439
0.278761863708
0.765062093735
0.572899341583
0.492705225945
0.726594865322
0.491084814072
0.305786371231
0.890965282917
0.43870228529
0.531301438808
0.525934994221
0.531196713448
0.687510251999
0.628345251083
0.624071478844
0.591312468052
0.196548327804
0.595466792583
0.344362825155
0.499271392822
0.708383560181
0.702313601971
0.696449577808
0.52203130722
0.987000226974
0.384287238121
0.398953557014
0.785294771194
0.446765720844
0.714737296104
0.330647110939
0.490033268929
0.567509412766
0.842054128647
0.670643150806
0.613386631012
0.377899557352
0.783940553665
0.591581642628
0.479083150625
0.636081933975
0.515494406223
0.790297150612
0.404747158289
0.419537812471
0.628239691257
0.273797690868
0.759402751923
0.571403443813
0.493344813585
0.722304403782
0.493121564388
0.302915215492
0.884791314602
0.437600135803
0.530587911606
0.523510634899
0.533494591713
0.668138444424
0.703224658966
0.632860004902
0.57969212532
0.192377209663
0.599235057831
0.335585415363
0.503115713596
0.711979448795
0.694439530373
0.695092380047
0.519204437733
0.985357344151
0.374727129936
0.397585600615
0.775802791119
0.44485360384
0.710869431496
0.322802513838
0.485723644495
0.565065741539
0.838551044464
0.667580246925
0.606761693954
0.381400913
0.773317396641
0.59332627058
0.480299144983
0.641189575195
0.514322519302
0.799910128117
0.39961874485
0.402060210705
0.626597166061
0.279419392347
0.7618496418
0.564406216145
0.495604425669
0.727754414082
0.490826755762
0.302999079227
0.884006679058
0.4348115623
0.530417740345
0.52062356472
0.519386529922
0.6707290411
0.62781560421
0.60292840004
0.587809383869
0.192278400064
0.603821873665
0.34271645546
0.495880246162
0.707189202309
0.6938585639
0.695748806
0.52405923605
0.980106651783
0.403942257166
0.414898693562
0.777572989464
0.435779869556
0.712692737579
0.3262360394
0.483989030123
0.561015725136
0.844272851944
0.660486757755
0.599631667137
0.381653368473
0.770774841309
0.592976629734
0.477093338966
0.635733366013
0.51126074791
0.775803685188
0.39016571641
0.394510567188
0.663538575172
0.282284557819
0.780361890793
0.575914442539
0.485926508904
0.727931678295
0.492927849293
0.312200963497
0.875948548317
0.44828787446
0.522639334202
0.525999307632
0.524399518967
0.68025124073
0.631134927273
0.615988731384
0.584186077118
0.190486729145
0.594867348671
0.333829313517
0.506838977337
0.710770010948
0.689010620117
0.693789958954
0.526855766773
0.96991622448
0.370278060436
0.382243454456
0.800411999226
0.441289812326
0.710353553295
0.320722848177
0.484200298786
0.556755244732
0.839623034
0.639649391174
0.61283737421
0.374673426151
0.775639951229
0.589419126511
0.479048222303
0.626255333424
0.512675106525
0.767748594284
0.377670735121
0.386375874281
0.621437370777
0.280137687922
0.762464046478
0.574730873108
0.49495190382
0.723531424999
0.490254372358
0.303036421537
0.893170118332
0.42984855175
0.532404303551
0.514423727989
0.515302479267
0.686435520649
0.62051153183
0.608752608299
0.581376433372
0.19272749126
0.597711384296
0.343643695116
0.486167103052
0.691438138485
0.693859636784
0.68680536747
0.518315434456
0.958550572395
0.393917649984
0.396348834038
0.782097160816
0.438303530216
0.704867839813
0.327934026718
0.480856180191
0.553422868252
0.832034051418
0.653762817383
0.596070170403
0.378643006086
0.761743783951
0.587928950787
0.476487964392
0.630352735519
0.499012649059
0.775235652924
0.406812906265
0.398395389318
0.648548662663
0.27971559763
0.76890450716
0.57886070013
0.489766418934
0.715701282024
0.493571847677
0.310300946236
0.879640519619
0.433709323406
0.525615215302
0.506783664227
0.508376896381
0.683861613274
0.611837267876
0.603838145733
0.579129517078
0.188714757562
0.595478951931
0.333393931389
0.491583406925
0.69275277853
0.685748517513
0.688906610012
0.515555024147
0.955482184887
0.395529508591
0.411740422249
0.769513845444
0.441355139017
0.689100980759
0.341989636421
0.474663734436
0.561112523079
0.841111898422
0.637089014053
0.599880695343
0.37236610055
0.755633413792
0.583634972572
0.476192116737
0.630530416965
0.516328036785
0.772287070751
0.369460016489
0.369280785322
0.638547003269
0.288100481033
0.759347081184
0.561986863613
0.50240957737
0.719682693481
0.489118993282
0.308669388294
0.891329109669
0.432548075914
0.527222454548
0.506021797657
0.507998287678
0.681961536407
0.610122084618
0.595411121845
0.581584274769
0.185726925731
0.597139716148
0.329376041889
0.48754927516
0.690917432308
0.685573399067
0.68411308527
0.534562766552
0.95605301857
0.38581469655
0.408320128918
0.767977952957
0.445542216301
0.676174998283
0.338196843863
0.467958718538
0.556852817535
0.823273003101
0.639974236488
0.584008693695
0.382402926683
0.750092864037
0.570545077324
0.475851416588
0.624439179897
0.500631093979
0.764186382294
0.376110225916
0.380709737539
0.631038188934
0.28617143631
0.744933784008
0.574704289436
0.494000345469
0.710700452328
0.491083234549
0.312946438789
0.879886448383
0.44094902277
0.511369466782
0.513317942619
0.50456148386
0.677803575993
0.629866957664
0.598278641701
0.603686511517
0.190000802279
0.585253298283
0.333386719227
0.498004674911
0.701333105564
0.678993225098
0.678179383278
0.524045228958
0.953577518463
0.336437046528
0.373376578093
0.791092693806
0.417883694172
0.704936802387
0.318323791027
0.479348540306
0.549438893795
0.824607491493
0.644617140293
0.590347230434
0.377657026052
0.751530408859
0.573956847191
0.481505423784
0.633686900139
0.50706744194
0.748731076717
0.368288129568
0.367723852396
0.65355527401
0.281044334173
0.750982105732
0.56484079361
0.492774009705
0.716779768467
0.491129457951
0.304222762585
0.883128106594
0.430372834206
0.509329617023
0.510118961334
0.514951467514
0.691304981709
0.600451588631
0.589310705662
0.59057623148
0.18692317605
0.593104243279
0.330012142658
0.497937709093
0.688784241676
0.677133500576
0.679794490337
0.520566165447
0.937900543213
0.370500206947
0.376624494791
0.783978581429
0.441426813602
0.674890995026
0.335189580917
0.468472212553
0.546217083931
0.811050713062
0.647234559059
0.581226825714
0.384214371443
0.735750794411
0.571771979332
0.472221076488
0.625554025173
0.503814220428
0.755754470825
0.364169299603
0.360578298569
0.66978430748
0.312615036964
0.781404316425
0.575161278248
0.47932690382
0.709377527237
0.484486877918
0.318778067827
0.866124808788
0.438292205334
0.504056632519
0.499547988176
0.48761549592
0.691732108593
0.606873393059
0.58967345953
0.583911716938
0.181477680802
0.587506532669
0.328107386827
0.482597500086
0.69174772501
0.67557746172
0.669584274292
0.508365750313
0.939714074135
0.370479315519
0.377051860094
0.779847741127
0.439220696688
0.674218118191
0.341964542866
0.465140640736
0.541271805763
0.813905537128
0.656667113304
0.569463074207
0.375132679939
0.730131626129
0.57207763195
0.463844120502
0.615484178066
0.502687096596
0.753096520901
0.370285570621
0.365833729506
0.620525121689
0.27661716938
0.769411325455
0.573617696762
0.491271436214
0.711608409882
0.496582180262
0.309577614069
0.887967228889
0.46240195632
0.507309794426
0.51570135355
0.534366905689
0.687656223774
0.593393087387
0.596750855446
0.587723493576
0.185312479734
0.5740634799
0.329011797905
0.478521466255
0.676647663116
0.67147809267
0.672790467739
0.513761997223
0.939399778843
0.37499037385
0.397644579411
0.759969472885
0.459079623222
0.654355287552
0.355411827564
0.474538713694
0.55692923069
0.816240131855
0.642048418522
0.582091569901
0.387729912996
0.719966411591
0.559628784657
0.478450804949
0.613138139248
0.502522826195
0.755418419838
0.387473970652
0.37401458621
0.618991374969
0.272025585175
0.768803536892
0.545953452587
0.479698032141
0.707644402981
0.484388947487
0.298331707716
0.904407262802
0.432898491621
0.506461918354
0.536794304848
0.514825940132
0.68045425415
0.602272808552
0.575310885906
0.596173226833
0.176058650017
0.585363805294
0.331537604332
0.474238753319
0.67660009861
0.694818854332
0.685072183609
0.492455601692
0.933079957962
0.431044012308
0.403572112322
0.716311573982
0.45369964838
0.647127389908
0.358756154776
0.471801757812
0.588479757309
0.818048119545
0.649548888206
0.589377820492
0.381826043129
0.726230800152
0.563253641129
0.4759555161
0.625984072685
0.500752210617
0.734779715538
0.368938088417
0.367048829794
0.658096313477
0.26943770051
0.745501101017
0.559584379196
0.484743028879
0.707312941551
0.480472803116
0.304659992456
0.893950641155
0.433815956116
0.503187119961
0.496804624796
0.489663153887
0.681417763233
0.595649659634
0.583185791969
0.5697286129
0.180071905255
0.591268599033
0.363080978394
0.463963627815
0.676355957985
0.681743264198
0.678991377354
0.511781334877
0.934503376484
0.332654714584
0.381313472986
0.7815579772
0.425268322229
0.676607429981
0.317060381174
0.46893158555
0.521914303303
0.79896491766
0.633947372437
0.57263147831
0.372804254293
0.712780296803
0.583943545818
0.460560441017
0.599523186684
0.47988525033
0.750591576099
0.376403421164
0.362453758717
0.634313285351
0.266312837601
0.755795836449
0.549498200417
0.476420998573
0.713030874729
0.498356789351
0.30163693428
0.892350137234
0.433299034834
0.521668016911
0.483892321587
0.499146431684
0.67613863945
0.599884092808
0.576894164085
0.581472396851
0.182019963861
0.58041292429
0.330819636583
0.470268428326
0.664354860783
0.675058722496
0.659219264984
0.503940820694
0.925100386143
0.355627059937
0.380025625229
0.782909870148
0.433593571186
0.658827662468
0.35050714016
0.472505420446
0.534283936024
0.800466775894
0.639439702034
0.581796705723
0.377157211304
0.705646157265
0.576122224331
0.468523830175
0.60600990057
0.496740311384
0.721625983715
0.381655782461
0.363565146923
0.65016067028
0.269923597574
0.751458883286
0.554766178131
0.485873401165
0.71150881052
0.483588397503
0.303477942944
0.876096189022
0.438815683126
0.501306295395
0.50069051981
0.486749559641
0.675334751606
0.611477017403
0.581840753555
0.574196994305
0.177609026432
0.581382751465
0.331866800785
0.474609643221
0.665804743767
0.673393309116
0.661153435707
0.495678395033
0.929153501987
0.33508297801
0.369676232338
0.800247550011
0.424202889204
0.694262683392
0.321772456169
0.479390263557
0.508826673031
0.800733923912
0.642004191875
0.560292840004
0.383309334517
0.682819545269
0.579101085663
0.470129162073
0.610581696033
0.470073610544
0.753775656223
0.374208807945
0.358467817307
0.632358372211
0.276412457228
0.770358204842
0.54399317503
0.478419810534
0.696381926537
0.518172621727
0.304421931505
0.90407538414
0.423293977976
0.522453904152
0.480506658554
0.505519747734
0.672907173634
0.593687951565
0.569985449314
0.60967874527
0.176372602582
0.574733197689
0.355169564486
0.474474400282
0.662673652172
0.670036554337
0.669260799885
0.496232032776
0.949962258339
0.357540309429
0.392538100481
0.744647443295
0.424308687449
0.650262773037
0.342462509871
0.454228043556
0.533407509327
0.792939245701
0.647112667561
0.565803587437
0.370689153671
0.731205761433
0.585788369179
0.483231902122
0.631196737289
0.504522025585
0.748601853848
0.36658346653
0.3630643785
0.633511483669
0.267362952232
0.77248108387
0.538040399551
0.485896289349
0.697697281837
0.585729300976
0.308579862118
0.876289069653
0.445809096098
0.524664759636
0.478847146034
0.4937915802
0.672758281231
0.602395355701
0.582217812538
0.574034333229
0.173076987267
0.584737062454
0.314077466726
0.475363761187
0.687944412231
0.65262556076
0.670035541058
0.541620016098
0.94618421793
0.357446581125
0.38371476531
0.772642314434
0.404379487038
0.655145168304
0.327860325575
0.463820427656
0.522688150406
0.788483679295
0.631704688072
0.566394746304
0.371121674776
0.682149648666
0.577427148819
0.481995999813
0.63191151619
0.512883245945
0.717411220074
0.365962058306
0.345083773136
0.627017974854
0.266693174839
0.772413790226
0.554368436337
0.493925333023
0.697337210178
0.462750136852
0.279604434967
0.922874927521
0.407703101635
0.518812537193
0.49550896883
0.507908761501
0.671669602394
0.588466048241
0.573883533478
0.561961710453
0.179893612862
0.591674089432
0.326649427414
0.478254616261
0.674062490463
0.657208383083
0.69582504034
0.482856839895
0.941668868065
0.365298241377
0.388336896896
0.7689884305
0.424027085304
0.660662055016
0.332256704569
0.468974292278
0.513151049614
0.782134652138
0.63907968998
0.543857216835
0.367619484663
0.676436305046
0.570164203644
0.473116964102
0.624273777008
0.497092217207
0.744365990162
0.357707977295
0.386482089758
0.627554774284
0.260491102934
0.747745275497
0.53631067276
0.485154747963
0.698537766933
0.504501104355
0.294420212507
0.873307943344
0.413346379995
0.514768064022
0.480665177107
0.491292834282
0.663809418678
0.59493714571
0.570011198521
0.56639868021
0.175026476383
0.571513295174
0.325074762106
0.481522291899
0.662183046341
0.664869248867
0.652625739574
0.497043013573
0.905406236649
0.376522243023
0.390043258667
0.740604043007
0.440826117992
0.64975386858
0.339227825403
0.456014037132
0.518621146679
0.792569816113
0.629710912704
0.564738214016
0.3856562078
0.721667945385
0.569800615311
0.473954975605
0.648440241814
0.535821139812
0.714149177074
0.358303517103
0.365820467472
0.602363407612
0.278643578291
0.737900793552
0.553905427456
0.481918364763
0.680752396584
0.485113292933
0.283822655678
0.890639185905
0.414858847857
0.503947973251
0.482995867729
0.487126797438
0.672205746174
0.587356746197
0.570243835449
0.550125718117
0.17718540132
0.571989536285
0.324650257826
0.477498620749
0.642208337784
0.675614476204
0.668742895126
0.48733407259
0.916947126389
0.35526061058
0.381033658981
0.752827525139
0.421399921179
0.634824991226
0.358246535063
0.448716878891
0.53012239933
0.780376136303
0.630411207676
0.567366480827
0.370688855648
0.686773359776
0.595380187035
0.462609469891
0.622815489769
0.488555908203
0.734301447868
0.377299815416
0.350490003824
0.639677584171
0.272469311953
0.740847945213
0.546657204628
0.483561962843
0.685045719147
0.488699257374
0.295728027821
0.877469539642
0.424793124199
0.539596617222
0.467734754086
0.529107987881
0.634989500046
0.613777756691
0.612549602985
0.526350319386
0.170663401484
0.582751333714
0.317335039377
0.492627412081
0.667116880417
0.646587073803
0.673137307167
0.514746069908
0.943811178207
0.34460452199
0.383404284716
0.75613206625
0.406634509563
0.644951999187
0.328576266766
0.462079405785
0.520081996918
0.776588141918
0.625515580177
0.565413951874
0.367890059948
0.668876826763
0.570977389812
0.459475010633
0.635462939739
0.489250481129
0.759040355682
0.392861783504
0.329053610563
0.66592925787
0.280072391033
0.739375531673
0.560425877571
0.443072617054
0.706324756145
0.475714802742
0.309536516666
0.885051965714
0.433176279068
0.493496239185
0.506935536861
0.485752016306
0.670492470264
0.611365795135
0.569451749325
0.582414269447
0.19354583323
0.547617733479
0.331567674875
0.461514562368
0.645853936672
0.643194675446
0.660664796829
0.45372608304
0.914763629436
0.364974439144
0.39325812459
0.747726142406
0.402948766947
0.63341063261
0.337228685617
0.463758766651
0.505103468895
0.770544290543
0.609084904194
0.562948822975
0.363795876503
0.660678088665
0.595126748085
0.496777445078
0.614207625389
0.477233797312
0.735772371292
0.367472290993
0.351490557194
0.64351773262
0.271964609623
0.698006510735
0.620713949203
0.456952273846
0.697759091854
0.469144999981
0.301068723202
0.860243976116
0.431136697531
0.492761701345
0.476207703352
0.469905078411
0.663908481598
0.594611048698
0.550544381142
0.557968199253
0.180500328541
0.548338890076
0.327789872885
0.457879185677
0.632441163063
0.650896608829
0.656629502773
0.457615494728
0.902957618237
0.36509463191
0.382254213095
0.768117964268
0.42642647028
0.631332099438
0.33091801405
0.458010166883
0.506535291672
0.764892041683
0.612930893898
0.593975365162
0.365183472633
0.683321714401
0.557551801205
0.504291474819
0.633294939995
0.478637725115
0.71589243412
0.365231484175
0.365471303463
0.616150259972
0.266647309065
0.759268403053
0.535666882992
0.48836761713
0.679920256138
0.480338662863
0.298955887556
0.856730341911
0.402663677931
0.495824128389
0.486329346895
0.466907590628
0.688225805759
0.582880914211
0.548809945583
0.590225577354
0.192354813218
0.531635224819
0.339505314827
0.462841033936
0.648908853531
0.642568647861
0.676605701447
0.476461797953
0.950071573257
0.389604330063
0.403002500534
0.711105406284
0.433756321669
0.63679254055
0.349719971418
0.465201735497
0.54764932394
0.782393217087
0.608208060265
0.568082094193
0.366276562214
0.666703462601
0.570977091789
0.483952373266
0.621268212795
0.482053309679
0.726339817047
0.351053774357
0.364133805037
0.608192205429
0.267584443092
0.740075290203
0.52572196722
0.45417663455
0.692979991436
0.477866619825
0.291325509548
0.872327268124
0.435212016106
0.491564393044
0.479989588261
0.456243157387
0.691916108131
0.587754368782
0.555419445038
0.555126488209
0.177447199821
0.551495075226
0.329115897417
0.486112684011
0.650059580803
0.619200825691
0.660266578197
0.498802781105
0.957487344742
0.356497645378
0.374766737223
0.764483630657
0.401588022709
0.65732228756
0.333276450634
0.455105274916
0.510048985481
0.763536453247
0.611212253571
0.553996503353
0.364719420671
0.64387357235
0.573632419109
0.457613408566
0.660789966583
0.504552423954
0.708770811558
0.350960224867
0.362878262997
0.624290764332
0.263329178095
0.735893845558
0.547324419022
0.469448924065
0.660744607449
0.468924611807
0.283846229315
0.884485602379
0.422154545784
0.526229798794
0.458312422037
0.488288700581
0.633283376694
0.566501259804
0.538867652416
0.549999952316
0.180186569691
0.5521312356
0.309056848288
0.452559858561
0.620481908321
0.683977484703
0.644476473331
0.466410666704
0.894122898579
0.353797197342
0.366554290056
0.764700829983
0.422658056021
0.651326835155
0.328576922417
0.465280771255
0.492823511362
0.746960997581
0.611456692219
0.563940286636
0.380334019661
0.675633370876
0.581526458263
0.500690996647
0.630092978477
0.509019494057
0.717162847519
0.354281932116
0.342285245657
0.620886862278
0.266245603561
0.744857549667
0.520304918289
0.459291875362
0.680263221264
0.533172726631
0.293551743031
0.878476202488
0.417380690575
0.502933263779
0.478682368994
0.440654993057
0.647684395313
0.601606190205
0.550272762775
0.550878465176
0.180516809225
0.557865440845
0.316350698471
0.447961568832
0.628489851952
0.648184597492
0.630033433437
0.451610803604
0.933165192604
0.361046552658
0.370360076427
0.725298166275
0.461664110422
0.663945794106
0.317142039537
0.455550074577
0.504945755005
0.734231889248
0.58793181181
0.551655292511
0.368600934744
0.705571770668
0.565440535545
0.469258546829
0.634079575539
0.477302402258
0.717206120491
0.36733686924
0.356357723475
0.627009212971
0.2592048347
0.748061597347
0.537753462791
0.473643809557
0.677503287792
0.493315339088
0.288849204779
0.850558876991
0.416358232498
0.483786076307
0.475522011518
0.45006775856
0.643273532391
0.566136956215
0.535002827644
0.598671853542
0.18931594491
0.54166585207
0.337296903133
0.44711792469
0.643485784531
0.640893340111
0.634344935417
0.4549087286
0.894314289093
0.330305933952
0.361797094345
0.738330245018
0.410431593657
0.652159631252
0.321523666382
0.446288526058
0.495420008898
0.764925479889
0.593711495399
0.540560007095
0.392612159252
0.668827056885
0.573397397995
0.472084730864
0.641885995865
0.506230533123
0.721456468105
0.360783696175
0.350746512413
0.628830492496
0.284348964691
0.724479198456
0.523221135139
0.448960483074
0.674519121647
0.468317836523
0.28036442399
0.872766017914
0.430080264807
0.506648004055
0.470857471228
0.446635901928
0.674628198147
0.550363481045
0.525645852089
0.565743684769
0.183863654733
0.54709893465
0.309599041939
0.472025305033
0.638566076756
0.647902607918
0.646023154259
0.455372422934
0.964379429817
0.368350982666
0.38265144825
0.69589728117
0.407359540462
0.642703831196
0.314192831516
0.477217853069
0.496741890907
0.745209634304
0.601284623146
0.552710235119
0.376208394766
0.651886463165
0.548016607761
0.467571943998
0.611936330795
0.493226915598
0.685626387596
0.356049716473
0.362421482801
0.622104525566
0.279829740524
0.730170309544
0.524382829666
0.464923411608
0.658165216446
0.481214880943
0.259214907885
0.858729124069
0.408919066191
0.486660271883
0.487489402294
0.465699374676
0.632022380829
0.556477725506
0.563580572605
0.581963539124
0.162436261773
0.599346399307
0.302203774452
0.481302678585
0.647662878036
0.624117612839
0.6456630826
0.466942876577
0.904453039169
0.357374042273
0.368653059006
0.728836238384
0.426528841257
0.657535493374
0.300931990147
0.454787760973
0.510745465755
0.756034851074
0.588415384293
0.546888947487
0.357996225357
0.637879431248
0.564661562443
0.457822024822
0.637302577496
0.494026422501
0.723717093468
0.390825152397
0.344832271338
0.637699365616
0.299557954073
0.751228392124
0.533817589283
0.445151597261
0.644699633121
0.483818501234
0.26705417037
0.859625756741
0.410765230656
0.499859631062
0.47145280242
0.440634191036
0.671261906624
0.575798511505
0.587104320526
0.547894537449
0.166512265801
0.568245947361
0.297741323709
0.453770518303
0.627016723156
0.64116102457
0.649487674236
0.443230509758
0.878819823265
0.378577470779
0.375765621662
0.706262528896
0.406855404377
0.631975769997
0.327299505472
0.442433267832
0.50800204277
0.733743071556
0.582178473473
0.623931646347
0.362923264503
0.653853595257
0.565549135208
0.46917206049
0.62775605917
0.483001112938
0.700351417065
0.387094140053
0.353581279516
0.60664910078
0.287183016539
0.704349696636
0.520361304283
0.437897711992
0.650028526783
0.473056703806
0.273723781109
0.856262385845
0.439789056778
0.506647348404
0.461010247469
0.440784722567
0.645914614201
0.541724920273
0.527603149414
0.592194080353
0.176543861628
0.552106380463
0.32750493288
0.46007835865
0.643397510052
0.626826524734
0.607661962509
0.476620972157
0.925734400749
0.350290477276
0.36281144619
0.732583105564
0.405552834272
0.639882326126
0.332070171833
0.450683057308
0.503545820713
0.746068418026
0.607437193394
0.523442387581
0.379758536816
0.636211037636
0.558467328548
0.460711628199
0.603094995022
0.489559412003
0.671848773956
0.359624356031
0.368810504675
0.621097743511
0.292416393757
0.69624376297
0.529566287994
0.442222774029
0.654341101646
0.463981032372
0.266687273979
0.852304518223
0.396350413561
0.463588327169
0.525825977325
0.450674444437
0.652139604092
0.571654736996
0.555796980858
0.535307228565
0.170747458935
0.553955614567
0.311949968338
0.440662384033
0.638999760151
0.612333238125
0.612284898758
0.457670986652
0.882306993008
0.320377379656
0.347752153873
0.726493775845
0.404835402966
0.707321941853
0.310847103596
0.474931329489
0.47839936614
0.713587939739
0.580168485641
0.583131611347
0.370162248611
0.646346151829
0.553696155548
0.487132459879
0.654879748821
0.528604507446
0.666087269783
0.374286413193
0.361123085022
0.613061070442
0.27635243535
0.719037413597
0.525387942791
0.460554629564
0.722774326801
0.475410580635
0.275218605995
0.855691671371
0.415575712919
0.437849640846
0.512245595455
0.452937930822
0.640310764313
0.54821062088
0.554879963398
0.517327129841
0.164098933339
0.569427013397
0.300754308701
0.46378621459
0.634569346905
0.661823093891
0.63166475296
0.443783462048
0.850411653519
0.360568910837
0.390070557594
0.660039842129
0.438833087683
0.64179956913
0.343021392822
0.454086840153
0.500766038895
0.732311606407
0.574342250824
0.535175979137
0.412546247244
0.719639539719
0.622642695904
0.472752600908
0.6665828228
0.568874001503
0.766704022884
0.353881925344
0.350087732077
0.625497043133
0.293384581804
0.727739095688
0.501717507839
0.434593707323
0.689096808434
0.488623172045
0.284090280533
0.804379820824
0.391318142414
0.458785444498
0.479888737202
0.442227005959
0.626472711563
0.567696750164
0.563566803932
0.517022132874
0.167231708765
0.531930446625
0.315741717815
0.441882520914
0.62712931633
0.606184482574
0.635601818562
0.44821164012
0.875527799129
0.362281084061
0.361533880234
0.682087421417
0.427060008049
0.671596884727
0.318409323692
0.463814854622
0.487908631563
0.682958006859
0.588690578938
0.535036981106
0.374803781509
0.653494417667
0.540112674236
0.483043372631
0.633980929852
0.532576978207
0.683989465237
0.36000919342
0.358170509338
0.621246397495
0.284806370735
0.706872940063
0.502188622952
0.456294625998
0.648824512959
0.460836440325
0.262102127075
0.896157085896
0.416884988546
0.486167371273
0.452007949352
0.430072963238
0.666760385036
0.543076753616
0.546121835709
0.534182369709
0.166901022196
0.539603531361
0.303280383348
0.447428256273
0.594882071018
0.611071407795
0.629327714443
0.459392994642
0.874308168888
0.377282500267
0.383063346148
0.672235250473
0.443083912134
0.612872898579
0.317204356194
0.43970143795
0.490988492966
0.718391180038
0.525739789009
0.542286396027
0.359406650066
0.663116812706
0.562815904617
0.48803833127
0.633694827557
0.507767260075
0.683228909969
0.363265842199
0.353068768978
0.628464460373
0.275925457478
0.695163428783
0.522283196449
0.462862938643
0.639448344707
0.458962619305
0.251636505127
0.883853673935
0.39807498455
0.49571621418
0.459260821342
0.417468994856
0.656559467316
0.532326698303
0.525530993938
0.525395750999
0.168734893203
0.554140746593
0.297333657742
0.439431071281
0.591245293617
0.614522457123
0.569591581821
0.433674693108
0.86461687088
0.389521569014
0.352083921432
0.706687927246
0.451930165291
0.65487408638
0.304015040398
0.443812906742
0.478059858084
0.705777943134
0.570096075535
0.553199708462
0.371762871742
0.674737751484
0.545979440212
0.450143575668
0.634119749069
0.514939427376
0.665046870708
0.347708672285
0.337515473366
0.62956482172
0.27751660347
0.699798285961
0.491982638836
0.435920715332
0.662230551243
0.455728977919
0.258697062731
0.855172097683
0.388713538647
0.48563349247
0.518519937992
0.454786479473
0.615803778172
0.519223570824
0.531729161739
0.514848351479
0.158160194755
0.538137197495
0.291738897562
0.437629938126
0.567462682724
0.700645208359
0.646552801132
0.426848441362
0.871307551861
0.356128543615
0.376685291529
0.674101650715
0.533234238625
0.61793333292
0.336901217699
0.44516479969
0.495612949133
0.685735762119
0.521725833416
0.554654836655
0.38700196147
0.649642348289
0.544454753399
0.454548835754
0.656985163689
0.52631509304
0.638404011726
0.352277874947
0.350028991699
0.618457198143
0.275566220284
0.718851387501
0.488519519567
0.441157221794
0.63831949234
0.464801877737
0.266391992569
0.907109498978
0.380805432796
0.465263783932
0.463849872351
0.426314324141
0.635696947575
0.524449288845
0.534988224506
0.51329690218
0.163871958852
0.521947443485
0.292259812355
0.438960880041
0.565387904644
0.624817073345
0.675312578678
0.457996666431
0.841511905193
0.379154652357
0.407259762287
0.665897846222
0.520846009254
0.675484895706
0.344980150461
0.446436226368
0.492716193199
0.711413323879
0.559296965599
0.533903181553
0.374942332506
0.634536087513
0.552199959755
0.434481114149
0.60696721077
0.498532682657
0.69991850853
0.353235155344
0.333358317614
0.619630694389
0.290668785572
0.6989813447
0.513288736343
0.434543520212
0.676240921021
0.458121716976
0.271361559629
0.870604872704
0.403717577457
0.450417786837
0.475576013327
0.423825830221
0.620340704918
0.522401332855
0.520468533039
0.562441945076
0.161280810833
0.531681120396
0.29856467247
0.431367307901
0.584456503391
0.647232234478
0.622943937778
0.444508463144
0.841428935528
0.376491248608
0.35410708189
0.680426836014
0.402864456177
0.621877372265
0.301622837782
0.449099510908
0.49431297183
0.673681735992
0.545777499676
0.526794493198
0.368046104908
0.605882167816
0.551520228386
0.448632240295
0.663311481476
0.502907156944
0.676479876041
0.350793868303
0.354496240616
0.633654177189
0.276422858238
0.698141694069
0.487248301506
0.448856174946
0.652714133263
0.465170443058
0.256809413433
0.85383361578
0.389540791512
0.4512116611
0.457206964493
0.42985573411
0.630657553673
0.53963637352
0.515044212341
0.52700483799
0.158842816949
0.547346353531
0.284999966621
0.430211484432
0.576743602753
0.577139794827
0.620936334133
0.470887184143
0.886264204979
0.307819217443
0.347827464342
0.698360264301
0.404704332352
0.654888868332
0.313562035561
0.433275133371
0.462194532156
0.709654092789
0.519195973873
0.529226362705
0.36926934123
0.626559913158
0.523474097252
0.448864400387
0.609234333038
0.509497523308
0.668439626694
0.339534491301
0.349375993013
0.637276113033
0.266416668892
0.701872706413
0.487025171518
0.490332782269
0.67399096489
0.464669406414
0.256802916527
0.839355230331
0.392069786787
0.47584182024
0.428421318531
0.410110294819
0.686478376389
0.522690296173
0.530013144016
0.501200199127
0.170116856694
0.509948968887
0.285892009735
0.441686064005
0.607491075993
0.58318310976
0.592798531055
0.42828515172
0.861987173557
0.361838489771
0.357413321733
0.679196000099
0.398877173662
0.590733170509
0.306349098682
0.447019577026
0.474965929985
0.692868053913
0.556421339512
0.507809460163
0.374652057886
0.627338290215
0.55588632822
0.439481437206
0.638380289078
0.496640086174
0.686192929745
0.364008784294
0.333073616028
0.600386977196
0.28492167592
0.684624552727
0.484652101994
0.436433017254
0.653924584389
0.450608789921
0.252427190542
0.923930227757
0.382427603006
0.475543439388
0.442320287228
0.449218660593
0.58431738615
0.577666461468
0.573560118675
0.498982012272
0.159371674061
0.536801755428
0.276620090008
0.419557958841
0.603876769543
0.560178160667
0.584011256695
0.456603765488
0.832368314266
0.335837721825
0.349203109741
0.689408540726
0.37858620286
0.647736787796
0.28881072998
0.448045045137
0.475643604994
0.67249917984
0.516888201237
0.540129899979
0.363599598408
0.593475997448
0.553025722504
0.436411559582
0.655409991741
0.499634176493
0.649165928364
0.351022809744
0.337610781193
0.614953696728
0.274545699358
0.686007559299
0.477558910847
0.429330676794
0.662179231644
0.471642613411
0.278455764055
0.84309142828
0.376604378223
0.440459370613
0.437070965767
0.458893120289
0.636399209499
0.517462313175
0.506581664085
0.513630747795
0.17362703383
0.517022252083
0.296968877316
0.427278220654
0.634055197239
0.590474247932
0.591509580612
0.503987908363
0.856050312519
0.316940158606
0.348774075508
0.662185966969
0.478374361992
0.670078873634
0.291448056698
0.42913967371
0.499705284834
0.683944344521
0.549817323685
0.519809961319
0.375180393457
0.603370070457
0.570209622383
0.422921419144
0.638353168964
0.469409793615
0.6572894454
0.389651596546
0.338422179222
0.60698646307
0.262251585722
0.668178617954
0.505380272865
0.411591827869
0.638719379902
0.470731467009
0.260872721672
0.909230828285
0.38184440136
0.455944359303
0.458033323288
0.444561690092
0.626922428608
0.516627907753
0.505693495274
0.539071023464
0.15853600204
0.510811090469
0.317303031683
0.40770149231
0.554686069489
0.597641825676
0.614780604839
0.442981719971
0.796191930771
0.420013546944
0.352016061544
0.682742893696
0.389792412519
0.63902670145
0.289298981428
0.437623053789
0.520189106464
0.650573134422
0.490473479033
0.502881646156
0.353342324495
0.602827310562
0.539409577847
0.452532231808
0.62815117836
0.482954859734
0.662379443645
0.341039806604
0.335082292557
0.615770280361
0.281338661909
0.673278331757
0.47780162096
0.425769895315
0.652934730053
0.46092620492
0.264464586973
0.832368910313
0.413387864828
0.412436574697
0.444122701883
0.412902146578
0.588399708271
0.505292534828
0.508785247803
0.499099969864
0.164817586541
0.539019346237
0.283423304558
0.410204082727
0.547589659691
0.545367956161
0.566568613052
0.454243838787
0.831063091755
0.38792437315
0.361666232347
0.676298201084
0.424419403076
0.605923831463
0.294440090656
0.444025427103
0.485246479511
0.669272184372
0.49108505249
0.501829862595
0.362977564335
0.603021800518
0.533778011799
0.479472845793
0.647128880024
0.540698766708
0.691596388817
0.356598138809
0.374025225639
0.597181141376
0.267895281315
0.668856978416
0.474018603563
0.431380420923
0.647067964077
0.451052486897
0.233919218183
0.850861370564
0.423506379128
0.427421659231
0.42694786191
0.408913761377
0.61481654644
0.499579459429
0.50869345665
0.500442683697
0.174043729901
0.562055766582
0.408285140991
0.440079957247
0.576571822166
0.592459022999
0.629161655903
0.425595104694
0.812083661556
0.365530461073
0.363095313311
0.638152837753
0.413631290197
0.631538152695
0.296814471483
0.442438364029
0.526614487171
0.669667959213
0.47709685564
0.515751361847
0.355055093765
0.590878129005
0.532703101635
0.427238851786
0.621347367764
0.498045116663
0.710884690285
0.33791667223
0.317653149366
0.611129105091
0.298405110836
0.663789153099
0.497845768929
0.408374190331
0.66038775444
0.436459779739
0.257634103298
0.851809263229
0.396791726351
0.434193789959
0.435811847448
0.421988993883
0.625823378563
0.528558790684
0.503214657307
0.520600557327
0.163255646825
0.510811626911
0.291543871164
0.430907130241
0.586066484451
0.616777658463
0.576579034328
0.466406673193
0.81713449955
0.306737929583
0.334574013948
0.653672575951
0.394426912069
0.622277617455
0.301877826452
0.429599195719
0.516116380692
0.691002726555
0.497201830149
0.514421761036
0.357045143843
0.586717665195
0.554186165333
0.411298900843
0.617424488068
0.478397101164
0.656887352467
0.354820489883
0.340459167957
0.616489589214
0.2615711689
0.656370341778
0.493957906961
0.411802172661
0.659725129604
0.441885501146
0.249367594719
0.860171973705
0.406399071217
0.456748574972
0.449490725994
0.453234106302
0.631680548191
0.52106153965
0.533388078213
0.479466557503
0.128535836935
0.562049746513
0.291758418083
0.438042908907
0.557296931744
0.603225171566
0.601299762726
0.392837882042
0.784072637558
0.380476772785
0.36242556572
0.653638482094
0.40988022089
0.6520575881
0.295371085405
0.406579732895
0.499607890844
0.664453208447
0.473181009293
0.545680820942
0.351090967655
0.595118463039
0.552279949188
0.428590387106
0.607970476151
0.488990962505
0.718372642994
0.359193772078
0.332313030958
0.600761055946
0.252690881491
0.674933254719
0.486492574215
0.418980062008
0.666365504265
0.460645586252
0.252829998732
0.851662278175
0.398830711842
0.434437483549
0.457229912281
0.40633893013
0.638006269932
0.48714736104
0.501673877239
0.472145169973
0.177696034312
0.506249248981
0.296648949385
0.413611978292
0.58831268549
0.560957014561
0.522338032722
0.436116248369
0.803369760513
0.309282332659
0.368696898222
0.671439349651
0.412249028683
0.616746008396
0.285693198442
0.458399057388
0.500787973404
0.653972327709
0.474380731583
0.502912938595
0.362136125565
0.572453856468
0.533456742764
0.452511608601
0.630272805691
0.492381244898
0.655745387077
0.352613449097
0.338140100241
0.641689240932
0.2616982162
0.657858371735
0.472370862961
0.425276875496
0.65346544981
0.444645047188
0.269238382578
0.877176582813
0.365426421165
0.426242858171
0.444372951984
0.434249788523
0.598852515221
0.467573314905
0.516882717609
0.515667557716
0.174583077431
0.584852039814
0.300598800182
0.44996547699
0.56748855114
0.581430137157
0.577063441277
0.425692290068
0.794005453587
0.416873246431
0.369581758976
0.64716565609
0.378331452608
0.635989487171
0.293158650398
0.453849822283
0.478413075209
0.663355708122
0.500319719315
0.518938064575
0.361262172461
0.59346562624
0.527742743492
0.426943898201
0.603294551373
0.500551223755
0.68826597929
0.386632502079
0.313653260469
0.613520681858
0.342896968126
0.688766241074
0.505359590054
0.446072548628
0.652166962624
0.446911096573
0.268163353205
0.803527772427
0.384537041187
0.424480259418
0.44254681468
0.407314568758
0.578553974628
0.538455069065
0.535405218601
0.522493720055
0.190167039633
0.501504421234
0.31582993269
0.427113503218
0.566583871841
0.570158720016
0.612593173981
0.490579068661
0.786046087742
0.37681594491
0.325049221516
0.648805320263
0.424595326185
0.604549765587
0.297276079655
0.422511070967
0.487816721201
0.650574743748
0.491463005543
0.500454485416
0.38056999445
0.582588136196
0.526465177536
0.402892917395
0.605809986591
0.507326900959
0.646502971649
0.343140155077
0.34656471014
0.577906548977
0.252835452557
0.665168821812
0.506085336208
0.407282799482
0.641130447388
0.443653941154
0.260773211718
0.775224924088
0.373243778944
0.418202221394
0.42664000392
0.430702626705
0.642228364944
0.549899995327
0.518961846828
0.507815361023
0.161799564958
0.529938101768
0.270719736814
0.421820938587
0.571525394917
0.551064968109
0.569000720978
0.448212444782
0.75562942028
0.338627785444
0.328131556511
0.684823930264
0.390539050102
0.597548246384
0.314756423235
0.437417119741
0.488136380911
0.668642520905
0.483616948128
0.484946668148
0.361176580191
0.542839109898
0.505756020546
0.42786693573
0.591885507107
0.533876895905
0.663198173046
0.352184802294
0.335008859634
0.577081978321
0.27107039094
0.651041269302
0.488531887531
0.427106618881
0.647315204144
0.436838179827
0.2395529598
0.852489650249
0.393470913172
0.440683364868
0.435770183802
0.410301119089
0.592700302601
0.497055739164
0.508037805557
0.46396446228
0.151675149798
0.496748894453
0.278976589441
0.42675191164
0.537289440632
0.556166708469
0.597628176212
0.433854669333
0.775240302086
0.372874975204
0.335539519787
0.667118966579
0.3899333179
0.692126750946
0.293945968151
0.422969132662
0.506041049957
0.645443320274
0.477491557598
0.469357192516
0.380232393742
0.557099938393
0.551824271679
0.416507840157
0.59548664093
0.462480247021
0.683329463005
0.351940393448
0.328685313463
0.597281515598
0.354976207018
0.621583998203
0.539798796177
0.43058219552
0.686970949173
0.488247513771
0.294043153524
0.785789132118
0.387672930956
0.424838870764
0.459310382605
0.420987308025
0.562206029892
0.533745765686
0.504037678242
0.459709554911
0.145972922444
0.503332018852
0.301182359457
0.42894884944
0.588541924953
0.552458524704
0.537451684475
0.453828543425
0.778485238552
0.323606044054
0.312521070242
0.641853690147
0.339984893799
0.60319262743
0.303954213858
0.459273457527
0.457036405802
0.647371828556
0.465162098408
0.496464073658
0.353530466557
0.575799047947
0.481541663408
0.41788905859
0.596500396729
0.461374282837
0.641151726246
0.339433968067
0.333786606789
0.556846916676
0.240372717381
0.651403605938
0.476279348135
0.406543552876
0.636242806911
0.438975900412
0.233441621065
0.810156106949
0.354527294636
0.408493578434
0.399608999491
0.403123617172
0.592040896416
0.506096065044
0.498744666576
0.454255908728
0.170869603753
0.538144171238
0.292936563492
0.469658821821
0.617133378983
0.563389658928
0.530456066132
0.420600622892
0.795118570328
0.346194446087
0.329184889793
0.61807769537
0.40799844265
0.629028618336
0.351118326187
0.412215203047
0.504281938076
0.627113997936
0.488757282495
0.47763222456
0.33987519145
0.534707069397
0.500618100166
0.414528727531
0.588575839996
0.485952079296
0.614646911621
0.375837177038
0.320468366146
0.600854158401
0.268625020981
0.630862593651
0.444469422102
0.383231848478
0.596414029598
0.405686199665
0.248270377517
0.820155382156
0.379250019789
0.422210156918
0.412275195122
0.419608831406
0.54606115818
0.513538956642
0.501644134521
0.470851749182
0.168198049068
0.47780790925
0.312409043312
0.421147942543
0.561457395554
0.571077287197
0.561684131622
0.462124526501
0.802232801914
0.362705767155
0.346848249435
0.706934034824
0.348260372877
0.617507398129
0.271350324154
0.488592535257
0.497641593218
0.68599820137
0.464126437902
0.505660176277
0.337571531534
0.523877263069
0.516384959221
0.411110788584
0.620671868324
0.472228825092
0.611923158169
0.370948195457
0.313654631376
0.56170976162
0.278884768486
0.624713897705
0.449048757553
0.369216322899
0.676022768021
0.479787230492
0.278777122498
0.7381118536
0.38637599349
0.41009414196
0.43972235918
0.434267342091
0.642579197884
0.576877772808
0.519763708115
0.497066348791
0.18098667264
0.560708880424
0.299334019423
0.469981193542
0.625378668308
0.544429540634
0.5715508461
0.483038127422
0.827009499073
0.29151520133
0.321725279093
0.625360250473
0.375296592712
0.628087162971
0.29345959425
0.425369113684
0.480382919312
0.627539038658
0.479665160179
0.468813121319
0.360572427511
0.544616341591
0.62589854002
0.437692821026
0.603502690792
0.493368834257
0.634170055389
0.32738044858
0.343760371208
0.582361996174
0.231676280499
0.647099018097
0.474989444017
0.392552495003
0.593473255634
0.424145787954
0.229670673609
0.749198198318
0.360781520605
0.390227019787
0.407517045736
0.431281208992
0.586136043072
0.477424919605
0.505439817905
0.479173153639
0.161150336266
0.623487710953
0.268546402454
0.448931843042
0.589783966541
0.570809006691
0.548337340355
0.483586132526
0.78902053833
0.308422923088
0.379091441631
0.685046315193
0.311567336321
0.609907031059
0.284516602755
0.45755007863
0.49948951602
0.632418572903
0.464486479759
0.503951966763
0.342393755913
0.538975358009
0.519483208656
0.447925597429
0.584568738937
0.519885420799
0.657384812832
0.330132126808
0.300248742104
0.640639483929
0.286917924881
0.624929785728
0.467373847961
0.401158422232
0.629648029804
0.439056247473
0.231107249856
0.778765618801
0.362039715052
0.401683956385
0.406538367271
0.415282100439
0.545120239258
0.528955996037
0.479935079813
0.442950427532
0.163785889745
0.572284936905
0.303444981575
0.394786149263
0.523652672768
0.555787920952
0.524953842163
0.441418260336
0.815846025944
0.3588116467
0.376009643078
0.680648446083
0.368627429008
0.591605067253
0.26945656538
0.429058998823
0.477461367846
0.710381031036
0.454184263945
0.478042066097
0.359453588724
0.542283713818
0.503995895386
0.427440285683
0.557733774185
0.447066485882
0.693856954575
0.374790728092
0.302922338247
0.617532491684
0.264108270407
0.59449326992
0.456990897655
0.401158362627
0.617434561253
0.41168153286
0.230877324939
0.759919583797
0.332715064287
0.398947119713
0.395263910294
0.395063251257
0.553621828556
0.512796223164
0.476295232773
0.459535300732
0.140228182077
0.523351192474
0.266997933388
0.41950944066
0.557822883129
0.550778448582
0.524047374725
0.413405328989
0.768618226051
0.299597471952
0.295175611973
0.701391458511
0.378674328327
0.58416634798
0.277925640345
0.406233221292
0.470421135426
0.626019835472
0.481038510799
0.473293274641
0.363268554211
0.518198251724
0.503452301025
0.431459784508
0.636874258518
0.511039912701
0.579876184464
0.335424661636
0.330823123455
0.611609220505
0.233100742102
0.638682723045
0.464601129293
0.383648216724
0.620169758797
0.445523351431
0.224757537246
0.740128040314
0.341196924448
0.435494691133
0.447251886129
0.393530607224
0.590213596821
0.478767007589
0.540939211845
0.442094355822
0.169863432646
0.504309058189
0.288279235363
0.424747228622
0.620946288109
0.552347660065
0.599264383316
0.430035620928
0.772345125675
0.305799126625
0.350748062134
0.682048797607
0.376865148544
0.549974262714
0.271677851677
0.409584224224
0.464255213737
0.678360342979
0.453746348619
0.459785073996
0.343115091324
0.537727952003
0.469177633524
0.395193099976
0.566020190716
0.476275831461
0.602143526077
0.35007750988
0.308406531811
0.596390008926
0.233837381005
0.626432180405
0.476729571819
0.434725195169
0.592123031616
0.409586399794
0.226594045758
0.848709106445
0.367936581373
0.426741153002
0.420291215181
0.529236316681
0.554602324963
0.48077210784
0.538151621819
0.449825286865
0.152541905642
0.542080760002
0.303303062916
0.383402734995
0.638308227062
0.62396043539
0.585986316204
0.445343613625
0.784834444523
0.314654588699
0.318117260933
0.597390651703
0.372235804796
0.644463479519
0.282634139061
0.401815503836
0.490725547075
0.658829212189
0.47164067626
0.469464570284
0.348067700863
0.530553340912
0.498062044382
0.448505043983
0.589659631252
0.526281297207
0.607783138752
0.334304511547
0.317915558815
0.538653671741
0.215284973383
0.617080926895
0.452917009592
0.394571393728
0.625318050385
0.416582196951
0.245017886162
0.75025677681
0.33044564724
0.443706423044
0.407178580761
0.441614151001
0.55654001236
0.458596795797
0.501489698887
0.498073160648
0.158665463328
0.484867542982
0.301131755114
0.403163313866
0.571565032005
0.527395188808
0.568348228931
0.455318897963
0.764495611191
0.271347373724
0.297623991966
0.63397872448
0.34615162015
0.610846102238
0.29772272706
0.457476466894
0.460503220558
0.608648121357
0.454280465841
0.442616194487
0.358291447163
0.533107876778
0.471295177937
0.384214997292
0.549523115158
0.433095365763
0.611078977585
0.32948127389
0.308323979378
0.56486260891
0.239424094558
0.656265258789
0.432246625423
0.401240170002
0.587926030159
0.427307724953
0.216469749808
0.751883089542
0.363480210304
0.444592773914
0.393061667681
0.406602740288
0.548287212849
0.462449997663
0.526168882847
0.411568492651
0.145144164562
0.489330381155
0.30100980401
0.436581730843
0.548179149628
0.545875310898
0.518719732761
0.48187443614
0.762498497963
0.308979719877
0.334212303162
0.740821242332
0.368671327829
0.620246231556
0.281609475613
0.412141114473
0.470442742109
0.612567186356
0.469381421804
0.494696199894
0.336775660515
0.519082307816
0.50389456749
0.416701436043
0.596778154373
0.516255140305
0.624611735344
0.343821942806
0.29926276207
0.576899468899
0.249813467264
0.615235447884
0.440164417028
0.377166897058
0.56411254406
0.394362539053
0.199694290757
0.737967312336
0.342070013285
0.416907966137
0.373156368732
0.418007284403
0.553947210312
0.454694360495
0.501058578491
0.414911150932
0.153142988682
0.513392210007
0.252334415913
0.397718042135
0.508840203285
0.520496726036
0.511322855949
0.416460424662
0.82222032547
0.249076172709
0.333413779736
0.681528270245
0.301731318235
0.62264585495
0.246197089553
0.422082722187
0.450452506542
0.640025377274
0.45058593154
0.486203074455
0.344866365194
0.577360510826
0.472424000502
0.390643537045
0.565085351467
0.485816717148
0.629086017609
0.385798037052
0.305331945419
0.589432179928
0.251115083694
0.618757069111
0.463838577271
0.385077089071
0.566464841366
0.407320171595
0.213836789131
0.747840702534
0.367554426193
0.392109304667
0.392319768667
0.475689888
0.543462216854
0.541674852371
0.482348561287
0.418770492077
0.158540293574
0.464664280415
0.292927503586
0.381995588541
0.503962337971
0.536873757839
0.503058850765
0.473601996899
0.773965537548
0.267924129963
0.304355412722
0.627437949181
0.311314344406
0.537315547466
0.268541067839
0.393993794918
0.443970918655
0.595827758312
0.425384819508
0.484199434519
0.372514605522
0.534588992596
0.481602221727
0.453883200884
0.615186929703
0.464615046978
0.580274939537
0.350093990564
0.289254277945
0.604186832905
0.245562896132
0.631616950035
0.454018175602
0.372509837151
0.58401787281
0.386578291655
0.202290594578
0.657563924789
0.336232483387
0.419191628695
0.387387573719
0.4075704813
0.538498520851
0.441832154989
0.487689852715
0.406948328018
0.159019619226
0.484329491854
0.270075559616
0.381104290485
0.529649376869
0.50872528553
0.482074171305
0.412373661995
0.746147990227
0.370699971914
0.378110527992
0.6223782897
0.411817014217
0.615900814533
0.278541445732
0.430685847998
0.447171092033
0.69130396843
0.475414961576
0.480723798275
0.335406750441
0.55015963316
0.484899133444
0.391528993845
0.593424916267
0.468219488859
0.601334691048
0.309738188982
0.300705194473
0.598709881306
0.234525606036
0.609469711781
0.460412144661
0.397457510233
0.588893294334
0.412377506495
0.228273570538
0.758809745312
0.392580688
0.394434511662
0.422317266464
0.39069801569
0.519152164459
0.417631149292
0.489319294691
0.569041609764
0.216571956873
0.501383602619
0.351940542459
0.427814304829
0.640034258366
0.577447116375
0.553311109543
0.494329720736
0.873016178608
0.296528071165
0.357334047556
0.594470441341
0.377121925354
0.635373353958
0.277627259493
0.450073629618
0.449094235897
0.664208233356
0.450538337231
0.470566511154
0.35372376442
0.57562071085
0.489229887724
0.403039336205
0.602268576622
0.478766471148
0.627607822418
0.344326376915
0.300122618675
0.612694680691
0.268039792776
0.605876743793
0.471078306437
0.418911486864
0.605146169662
0.434919208288
0.236677601933
0.657802760601
0.326712042093
0.378006249666
0.375952333212
0.362430691719
0.516779720783
0.417006999254
0.479310393333
0.394397586584
0.15303273499
0.532835304737
0.278465926647
0.411734938622
0.538854062557
0.510598897934
0.50262016058
0.417915701866
0.755613148212
0.289849966764
0.277865767479
0.617365717888
0.353294610977
0.609890699387
0.261513411999
0.431151747704
0.455098152161
0.610683619976
0.430536270142
0.427774339914
0.336982816458
0.525346040726
0.460657149553
0.417044252157
0.562822759151
0.427930861712
0.575906813145
0.383099943399
0.302351504564
0.583426654339
0.255167454481
0.596998155117
0.443390995264
0.400981366634
0.569245696068
0.366352677345
0.235352233052
0.657729804516
0.333639383316
0.444648295641
0.344825595617
0.432346194983
0.500910520554
0.476391911507
0.503168284893
0.392495185137
0.16234280169
0.495036363602
0.264734655619
0.420743972063
0.510955631733
0.506165862083
0.52942699194
0.472954064608
0.784570157528
0.298105418682
0.31348747015
0.628035366535
0.362576067448
0.601587235928
0.236357569695
0.396129697561
0.482160270214
0.595103502274
0.409724354744
0.420899569988
0.334439367056
0.499613881111
0.44213077426
0.416529268026
0.612035274506
0.445595920086
0.575157940388
0.295672953129
0.35397207737
0.594969928265
0.233753502369
0.606139779091
0.470828175545
0.40517026186
0.573755741119
0.391017466784
0.212107509375
0.723046958447
0.337770551443
0.367169350386
0.370510876179
0.467238306999
0.506706655025
0.418406784534
0.463992625475
0.402118563652
0.151947110891
0.514917194843
0.263750880957
0.377745240927
0.525107085705
0.546602606773
0.462215036154
0.430692136288
0.737444281578
0.287945777178
0.29482370615
0.605776667595
0.395279288292
0.61346000433
0.2383980304
0.385234415531
0.467573612928
0.620387852192
0.468529701233
0.432166934013
0.332464665174
0.520061552525
0.465260267258
0.387446045876
0.591936171055
0.432492226362
0.570137321949
0.338514775038
0.298869639635
0.525437295437
0.232427403331
0.603417873383
0.487201154232
0.384441822767
0.59021884203
0.432731032372
0.249096512794
0.72878921032
0.320917963982
0.418360739946
0.37138697505
0.399341344833
0.585663676262
0.439773797989
0.554920554161
0.433612823486
0.147715911269
0.458924651146
0.30198341608
0.367921710014
0.526867687702
0.48687428236
0.459568202496
0.417790144682
0.716872990131
0.256903201342
0.303578495979
0.634030759335
0.369190096855
0.544256746769
0.255254715681
0.418321430683
0.416878730059
0.604809045792
0.415191501379
0.427660673857
0.339064031839
0.498876661062
0.436960607767
0.388255983591
0.505744278431
0.442165493965
0.619291603565
0.328626334667
0.347937017679
0.606946408749
0.228097721934
0.609603106976
0.42733207345
0.366517305374
0.618360340595
0.440888762474
0.228791460395
0.699188709259
0.345440745354
0.400268316269
0.356611251831
0.390843957663
0.580760598183
0.472929924726
0.506674170494
0.417277902365
0.158189728856
0.45951884985
0.266060322523
0.355649411678
0.518273353577
0.513224959373
0.492563098669
0.396852791309
0.75879585743
0.283754885197
0.301948189735
0.609733402729
0.374190896749
0.556645393372
0.243206784129
0.39396828413
0.427713125944
0.59967726469
0.439086556435
0.450176537037
0.389256358147
0.525226652622
0.421334117651
0.382046431303
0.520557940006
0.433005154133
0.615930974483
0.321732282639
0.304569125175
0.575695633888
0.251567065716
0.613883197308
0.469360172749
0.41275036335
0.625867247581
0.410327225924
0.238864004612
0.690435349941
0.312575519085
0.514725744724
0.381255835295
0.406056821346
0.512967169285
0.468714058399
0.493358910084
0.44165956974
0.146847680211
0.493655622005
0.272218853235
0.361892849207
0.517618715763
0.486165165901
0.530770480633
0.43036994338
0.728174686432
0.270971775055
0.297304213047
0.644270658493
0.359672695398
0.574545145035
0.264023959637
0.384061425924
0.422316133976
0.571548104286
0.424287259579
0.496499180794
0.342325389385
0.499084711075
0.497428655624
0.342091560364
0.524787545204
0.422346621752
0.539993703365
0.30251839757
0.376828372478
0.637446880341
0.253646403551
0.584569334984
0.438348323107
0.359831094742
0.563700854778
0.384421467781
0.224063277245
0.714055657387
0.358071088791
0.425489038229
0.422411799431
0.375373929739
0.532070219517
0.418886691332
0.488578379154
0.389205574989
0.148426443338
0.465372204781
0.251984328032
0.372362732887
0.538525819778
0.533273756504
0.461812525988
0.38747933507
0.740695595741
0.341636061668
0.277053445578
0.627757489681
0.297445654869
0.614292085171
0.262291133404
0.380081355572
0.447527289391
0.581783890724
0.421200782061
0.457821875811
0.374575912952
0.49676066637
0.426482468843
0.331666857004
0.537381350994
0.453056246042
0.600696504116
0.332093507051
0.311709314585
0.597078442574
0.26316383481
0.57565253973
0.487732738256
0.42155611515
0.611919462681
0.395214051008
0.209702029824
0.669424593449
0.300745725632
0.394785910845
0.323529809713
0.396706312895
0.569233417511
0.44994610548
0.509700298309
0.443247944117
0.156576648355
0.496029734612
0.276286244392
0.464171916246
0.572752535343
0.50973623991
0.495782405138
0.437274545431
0.73657232523
0.309051334858
0.312455534935
0.584158778191
0.310334771872
0.527602374554
0.245319023728
0.391951203346
0.430311590433
0.615473628044
0.467279821634
0.451392591
0.352767527103
0.489617615938
0.472157716751
0.368028670549
0.526450514793
0.425889730453
0.570912361145
0.304069876671
0.337342083454
0.545823156834
0.233810916543
0.63182336092
0.423845946789
0.408350259066
0.600889384747
0.386452019215
0.253916233778
0.671677231789
0.299915134907
0.405649274588
0.413015067577
0.38266685605
0.554668903351
0.378681004047
0.502775430679
0.407551914454
0.16126306355
0.442403554916
0.303676664829
0.377398908138
0.520749092102
0.501062989235
0.44495049119
0.443543046713
0.711245119572
0.287490814924
0.305528432131
0.677260160446
0.310783743858
0.584318876266
0.255496233702
0.398640602827
0.421892613173
0.623856604099
0.448751300573
0.446814000607
0.362109214067
0.511955678463
0.413897424936
0.3810095191
0.503504693508
0.421908795834
0.595343410969
0.37512665987
0.286747992039
0.556221842766
0.235119596124
0.63773971796
0.440318226814
0.422594577074
0.554747581482
0.376761883497
0.240434706211
0.643834769726
0.303677678108
0.403562247753
0.347231596708
0.364475399256
0.51057779789
0.402691334486
0.461071968079
0.363427996635
0.137702271342
0.436107039452
0.245808333158
0.350039094687
0.510522127151
0.50091534853
0.442066162825
0.419111847878
0.694009542465
0.280119776726
0.301268965006
0.580060780048
0.314851373434
0.568145513535
0.271696656942
0.430159747601
0.410867452621
0.57484972477
0.420297861099
0.455755740404
0.325047373772
0.481871515512
0.428877145052
0.354689568281
0.503587961197
0.457517176867
0.610005199909
0.294107943773
0.320164501667
0.560076773167
0.227178782225
0.58429479599
0.4332511127
0.363410294056
0.526513755322
0.404224038124
0.211320385337
0.67327016592
0.308257877827
0.421699643135
0.333515673876
0.40555664897
0.519779682159
0.405248641968
0.458132326603
0.392543107271
0.159751474857
0.444886624813
0.265470296144
0.360984414816
0.506730556488
0.519984483719
0.423996120691
0.402050256729
0.693697988987
0.297813147306
0.282100856304
0.690417170525
0.311552643776
0.546615123749
0.241135716438
0.370419949293
0.42863509059
0.586879968643
0.443333864212
0.436458587646
0.377259403467
0.511223733425
0.426308631897
0.356747925282
0.548028349876
0.446444779634
0.614409506321
0.299452483654
0.277776539326
0.587741136551
0.234613969922
0.604999542236
0.419841080904
0.360820382833
0.554726004601
0.395902097225
0.190786167979
0.632721662521
0.302798569202
0.36704903841
0.35511726141
0.389159500599
0.501126348972
0.382596373558
0.504341840744
0.412776082754
0.129804834723
0.528686761856
0.246737077832
0.360956192017
0.4965505898
0.562400877476
0.485483884811
0.39292499423
0.711752474308
0.291858702898
0.291396021843
0.618705391884
0.369218140841
0.513940870762
0.237126916647
0.399242311716
0.418227851391
0.590408563614
0.427509814501
0.439435571432
0.341533064842
0.476844102144
0.421135485172
0.352566599846
0.560904085636
0.442902743816
0.648236513138
0.379543155432
0.263195455074
0.571861624718
0.222519606352
0.5490680933
0.453847587109
0.372708320618
0.543482065201
0.394757539034
0.247936248779
0.653186202049
0.351481944323
0.364764094353
0.335936576128
0.423437148333
0.494298696518
0.38064455986
0.471548050642
0.395255744457
0.144843041897
0.42598938942
0.23625934124
0.430003881454
0.48173943162
0.500709176064
0.48728966713
0.408065438271
0.715303480625
0.295678079128
0.276070088148
0.690889060497
0.279315143824
0.673524141312
0.254656761885
0.424426496029
0.432301938534
0.62677937746
0.458278775215
0.431635051966
0.327493101358
0.559507548809
0.443114310503
0.365005880594
0.584896683693
0.450319975615
0.559847891331
0.298330903053
0.28213006258
0.567943871021
0.236929938197
0.670592784882
0.423463732004
0.365507513285
0.588144779205
0.376417160034
0.208247661591
0.671211004257
0.32067707181
0.458515316248
0.346651107073
0.388698339462
0.487529486418
0.390204429626
0.463986217976
0.3871781528
0.155831724405
0.439330518246
0.262387096882
0.37223225832
0.464193105698
0.50803399086
0.485209017992
0.42387086153
0.665202379227
0.267565190792
0.290742307901
0.63542419672
0.391768872738
0.499695509672
0.235858991742
0.37775978446
0.376289516687
0.578029215336
0.412876099348
0.404997944832
0.333513438702
0.48541110754
0.428539246321
0.345166653395
0.485292732716
0.437304854393
0.614091336727
0.344625890255
0.276195019484
0.592332363129
0.252370178699
0.601698517799
0.406043231487
0.377524286509
0.524907946587
0.388566017151
0.22220569849
0.624291181564
0.301493287086
0.376421362162
0.331218451262
0.376445859671
0.461652725935
0.400981217623
0.486631423235
0.405191659927
0.138313487172
0.433020234108
0.254072010517
0.352057605982
0.456501185894
0.476959466934
0.469342887402
0.392269641161
0.672853827477
0.255934864283
0.284775733948
0.542099714279
0.342836201191
0.623200893402
0.272935330868
0.385243922472
0.38907250762
0.604547679424
0.380776971579
0.425077319145
0.325688451529
0.455162137747
0.44239294529
0.347040891647
0.540677666664
0.454951316118
0.59997266531
0.372415959835
0.273072063923
0.567566335201
0.205113425851
0.5519515872
0.441361397505
0.406827419996
0.525930225849
0.406704246998
0.22303403914
0.638409137726
0.313063383102
0.41467449069
0.351655811071
0.396921575069
0.519653856754
0.421012699604
0.472996562719
0.353839099407
0.156474977732
0.461354255676
0.232318818569
0.339881062508
0.451320677996
0.510608911514
0.459445804358
0.38198196888
0.717682361603
0.30373698473
0.35666435957
0.71053725481
0.258339554071
0.579029679298
0.239485472441
0.398856192827
0.405178844929
0.64690309763
0.57644623518
0.444662749767
0.32927981019
0.50406819582
0.534357845783
0.350437194109
0.53650277853
0.464990705252
0.732079684734
0.316207647324
0.289269417524
0.499088197947
0.236936613917
0.603552281857
0.402916461229
0.344441771507
0.55215471983
0.380967497826
0.217912659049
0.615200817585
0.289603352547
0.373895049095
0.333817660809
0.361401379108
0.479570508003
0.405800223351
0.459966301918
0.349986046553
0.133699461818
0.499510765076
0.22362819314
0.349459558725
0.450830549002
0.456190556288
0.445629030466
0.388909637928
0.708019196987
0.263640373945
0.26498273015
0.562305510044
0.285828799009
0.52705436945
0.25409886241
0.41022002697
0.378461748362
0.609177649021
0.411939918995
0.412695586681
0.332229852676
0.501237273216
0.443965762854
0.341775506735
0.477003097534
0.412350296974
0.571087539196
0.282660156488
0.36061295867
0.521195590496
0.204380601645
0.619421482086
0.436260133982
0.451240032911
0.581886351109
0.366899251938
0.201883539557
0.598616540432
0.288486927748
0.410629808903
0.311907678843
0.374571025372
0.459473580122
0.357565104961
0.453523248434
0.349758446217
0.135172277689
0.451919317245
0.248820081353
0.419778525829
0.516710758209
0.473204225302
0.491870522499
0.486360967159
0.723613142967
0.286376923323
0.337199896574
0.589506149292
0.306921362877
0.684365451336
0.21524502337
0.403826743364
0.505312144756
0.617815315723
0.396569281816
0.429078608751
0.3243688941
0.568863034248
0.420740783215
0.347228974104
0.611976444721
0.457717210054
0.613028585911
0.333863019943
0.353770434856
0.591658473015
0.271337479353
0.577384591103
0.497799187899
0.397583663464
0.622421979904
0.438933730125
0.208652317524
0.644785523415
0.331923305988
0.421201467514
0.328310459852
0.447676688433
0.616888821125
0.43434458971
0.47943264246
0.370608091354
0.152806982398
0.480236500502
0.228409081697
0.368098378181
0.511560738087
0.460253953934
0.492145776749
0.436043322086
0.676707148552
0.23914501071
0.262669801712
0.544484615326
0.299711167812
0.52366745472
0.23490190506
0.428533792496
0.430725246668
0.580849170685
0.369864165783
0.38721087575
0.333711713552
0.486348330975
0.437495827675
0.341692656279
0.536966383457
0.453181952238
0.578087747097
0.277495265007
0.357852160931
0.543710172176
0.218253225088
0.563298046589
0.438465535641
0.379271864891
0.64703887701
0.418054819107
0.23188816011
0.66329485178
0.303222477436
0.40070182085
0.347950130701
0.365822553635
0.492790907621
0.35053935647
0.495776325464
0.341100841761
0.133666455746
0.411317288876
0.208988964558
0.339278519154
0.481377452612
0.455774664879
0.451510697603
0.413955539465
0.695421755314
0.29681494832
0.287233293056
0.623493790627
0.299164444208
0.568407773972
0.26071614027
0.36699616909
0.446660220623
0.572683691978
0.394232094288
0.424788087606
0.359863311052
0.488858640194
0.449222654104
0.324123561382
0.522402465343
0.43807592988
0.542770326138
0.285691231489
0.289383351803
0.533885240555
0.261756688356
0.54369443655
0.438484340906
0.337617337704
0.514023005962
0.363285750151
0.215452939272
0.614421546459
0.315154194832
0.395717710257
0.32238304615
0.386837542057
0.515871763229
0.354438185692
0.511317670345
0.369828462601
0.171801418066
0.426805853844
0.223668441176
0.346103578806
0.471605837345
0.442527621984
0.43236336112
0.389930814505
0.645454108715
0.24047061801
0.264204144478
0.573169529438
0.29767587781
0.528301179409
0.245982125401
0.419552356005
0.388672173023
0.568023681641
0.392614275217
0.410527795553
0.32061111927
0.454410254955
0.428819924593
0.363364607096
0.513478159904
0.411564975977
0.556730151176
0.310448735952
0.271465063095
0.516161739826
0.199931964278
0.568481326103
0.410585254431
0.328633666039
0.512419521809
0.382310092449
0.192492187023
0.613215327263
0.289197057486
0.363090515137
0.309904128313
0.375000983477
0.477080911398
0.329844474792
0.47235262394
0.342766165733
0.146566271782
0.551390707493
0.245268896222
0.351861566305
0.443188548088
0.458839565516
0.464061051607
0.392118304968
0.647600412369
0.268384486437
0.2825704813
0.583741426468
0.296350181103
0.547663271427
0.205031648278
0.364106535912
0.399572253227
0.539742529392
0.379172027111
0.40513420105
0.317620307207
0.451276957989
0.414707422256
0.328846901655
0.448246002197
0.41776356101
0.632925510406
0.347230553627
0.29855582118
0.582846224308
0.218791753054
0.545725345612
0.403893828392
0.332225948572
0.576963663101
0.38807913661
0.227298855782
0.664346694946
0.293650954962
0.379801034927
0.318053841591
0.331346809864
0.464179217815
0.341054737568
0.43841072917
0.380476802588
0.123484380543
0.399853587151
0.225391581655
0.332300335169
0.462915569544
0.534561097622
0.468614608049
0.432453542948
0.652907133102
0.286185622215
0.260812520981
0.586864948273
0.325349986553
0.538595736027
0.245069086552
0.38472121954
0.391037255526
0.551248729229
0.380639076233
0.449578106403
0.345376193523
0.50921446085
0.406514197588
0.335996776819
0.519090354443
0.392262160778
0.510190606117
0.277693748474
0.287149459124
0.508307218552
0.212047323585
0.528176963329
0.408993065357
0.33360812068
0.48511210084
0.372105419636
0.19312736392
0.64784437418
0.272470980883
0.362241476774
0.305000275373
0.377317249775
0.496705591679
0.349777340889
0.493162751198
0.344574332237
0.123039074242
0.405411481857
0.209827810526
0.354393959045
0.445943057537
0.472502589226
0.412741690874
0.384238898754
0.639254748821
0.305729985237
0.301225364208
0.593868076801
0.323173284531
0.526143848896
0.251750618219
0.381959527731
0.409595578909
0.611822128296
0.355903506279
0.480645567179
0.323720246553
0.488384634256
0.420740306377
0.343708336353
0.496860265732
0.43554225564
0.611632049084
0.310554087162
0.300032019615
0.620585560799
0.213979840279
0.542987823486
0.43109023571
0.320553541183
0.513398885727
0.346828639507
0.208582922816
0.646622240543
0.267648458481
0.458633720875
0.345154225826
0.363566100597
0.471612542868
0.367478907108
0.469745397568
0.416130185127
0.125196129084
0.376955330372
0.237997576594
0.342656731606
0.453166663647
0.491071462631
0.483701705933
0.428607434034
0.645046472549
0.261561989784
0.275786697865
0.570105910301
0.314858734608
0.565894007683
0.262320697308
0.370405226946
0.450373619795
0.622006177902
0.395561128855
0.400725781918
0.338444262743
0.447188407183
0.403025269508
0.325403600931
0.51638931036
0.414744466543
0.557521045208
0.352921634912
0.306822896004
0.53111833334
0.227237582207
0.513125240803
0.413462907076
0.3451834023
0.534739792347
0.37232670188
0.186706021428
0.599348843098
0.333166480064
0.421133637428
0.364463210106
0.380873292685
0.472772091627
0.362715184689
0.473174631596
0.374776422977
0.142123445868
0.418025434017
0.198601156473
0.358097165823
0.43847861886
0.46310326457
0.439518094063
0.403470158577
0.631966233253
0.250426471233
0.263812512159
0.5355437994
0.275128662586
0.520151913166
0.25346365571
0.401420682669
0.371547788382
0.562735438347
0.397801488638
0.468881577253
0.383328050375
0.503979206085
0.402338117361
0.357046037912
0.489656686783
0.397699773312
0.541741132736
0.316942542791
0.258626550436
0.514553844929
0.223382741213
0.53904402256
0.390273779631
0.327862620354
0.483639448881
0.391667485237
0.21109560132
0.557305753231
0.281783610582
0.366524517536
0.302184641361
0.388898998499
0.476897388697
0.405814826488
0.498931348324
0.389816522598
0.142678797245
0.478177517653
0.231018066406
0.34906950593
0.452087700367
0.473140597343
0.462573856115
0.477511435747
0.795262694359
0.266237437725
0.343319505453
0.66611802578
0.286099731922
0.576298773289
0.224182859063
0.391372978687
0.384475320578
0.590771198273
0.388125926256
0.436526685953
0.357698708773
0.54832804203
0.422532856464
0.313361495733
0.503618597984
0.397379845381
0.552955389023
0.275897562504
0.312168985605
0.532777607441
0.247489124537
0.520159006119
0.425559878349
0.308378070593
0.47566986084
0.375241994858
0.251466721296
0.593610823154
0.264215499163
0.346123963594
0.296163976192
0.38540032506
0.442453622818
0.330485194921
0.442469209433
0.322942972183
0.142311215401
0.410116046667
0.257466286421
0.354579389095
0.468346565962
0.468108832836
0.428624123335
0.377491772175
0.663118183613
0.266912072897
0.23936496675
0.589955091476
0.26909199357
0.547683358192
0.258697271347
0.3552749753
0.373464971781
0.546167194843
0.413286924362
0.408657670021
0.322694271803
0.568530142307
0.409171462059
0.334714591503
0.596044719219
0.476716011763
0.627556622028
0.339673697948
0.274201989174
0.587317883968
0.207940906286
0.505404353142
0.413491815329
0.312175780535
0.537935078144
0.392529308796
0.225658759475
0.608574807644
0.263079762459
0.362441509962
0.299697518349
0.354283243418
0.432312369347
0.313439756632
0.452262967825
0.361256361008
0.128894135356
0.397623747587
0.218885719776
0.340549111366
0.451331704855
0.471733272076
0.411551445723
0.421331495047
0.667459845543
0.263761013746
0.246492028236
0.545197725296
0.279205620289
0.514217078686
0.248839452863
0.408955991268
0.475415050983
0.631058037281
0.387957125902
0.438828289509
0.339933663607
0.481669396162
0.438806712627
0.376150399446
0.586203217506
0.460913151503
0.610913217068
0.310385078192
0.276495546103
0.567433238029
0.202788233757
0.532343149185
0.397453188896
0.358996361494
0.472547084093
0.365580826998
0.175038412213
0.598668336868
0.273256659508
0.38679382205
0.310517966747
0.419502407312
0.514511823654
0.426322937012
0.477512121201
0.370152592659
0.128121763468
0.460770636797
0.225850373507
0.364260703325
0.46464946866
0.440125882626
0.47669890523
0.386960446835
0.699272930622
0.282693356276
0.252875715494
0.571582317352
0.250234723091
0.51496553421
0.215708240867
0.332818865776
0.367473632097
0.547268152237
0.402823954821
0.397151768208
0.33569175005
0.420677542686
0.391003102064
0.350909739733
0.501738727093
0.441841036081
0.531835734844
0.314720034599
0.264264672995
0.514454185963
0.280128121376
0.538625895977
0.429323613644
0.336863607168
0.500333309174
0.342741131783
0.203857198358
0.633621633053
0.275834828615
0.373634755611
0.332369089127
0.366221010685
0.511116266251
0.500603020191
0.512010753155
0.356073945761
0.128943875432
0.390342414379
0.23913384974
0.360249817371
0.451491445303
0.434225320816
0.415891498327
0.35600104928
0.646325826645
0.267278134823
0.255581945181
0.639211475849
0.279203355312
0.574074983597
0.209436222911
0.397490888834
0.409308314323
0.685475945473
0.384803622961
0.424923866987
0.324590981007
0.509649217129
0.471761405468
0.343702554703
0.482227295637
0.446817219257
0.644604504108
0.316589802504
0.307424902916
0.503430783749
0.205144003034
0.522956073284
0.399776697159
0.341587901115
0.52427649498
0.353612631559
0.213270753622
0.603560209274
0.268088907003
0.382346659899
0.303390800953
0.382048428059
0.4700935781
0.355012089014
0.458975493908
0.361987560987
0.132187277079
0.466550052166
0.230804041028
0.33803910017
0.429488837719
0.464511096478
0.419002264738
0.37964490056
0.637297153473
0.271136969328
0.260422259569
0.535999059677
0.341749459505
0.568319916725
0.216030731797
0.405825018883
0.346046328545
0.602789342403
0.37575802207
0.405398100615
0.331108480692
0.447220981121
0.384081423283
0.304673701525
0.4641033113
0.387799352407
0.589651584625
0.279381006956
0.296523362398
0.529209136963
0.213852003217
0.478078395128
0.452837228775
0.335995793343
0.551369905472
0.359407395124
0.201535746455
0.633878588676
0.285758376122
0.39140868187
0.314389377832
0.354877710342
0.43965151906
0.342956274748
0.452260822058
0.331936180592
0.158234074712
0.44442397356
0.229471057653
0.370573192835
0.485927343369
0.460418820381
0.457520216703
0.392412036657
0.701762020588
0.256367623806
0.248507633805
0.543412029743
0.237416386604
0.569461405277
0.210686832666
0.395743727684
0.3932967484
0.534720480442
0.390949010849
0.418190598488
0.34392079711
0.454848527908
0.467266321182
0.386293828487
0.500532448292
0.535567879677
0.578089773655
0.289634138346
0.273384004831
0.497546881437
0.212833106518
0.482434660196
0.41612765193
0.342794030905
0.527890861034
0.37499114871
0.224755838513
0.57170265913
0.300612211227
0.357064396143
0.295688331127
0.359712153673
0.433460831642
0.344585865736
0.440809816122
0.340336948633
0.160081669688
0.362078547478
0.222771853209
0.33697077632
0.456542372704
0.438481688499
0.423380821943
0.369612038136
0.641085803509
0.263374298811
0.260255903006
0.527691364288
0.271807909012
0.62811601162
0.20233283937
0.370785593987
0.348728209734
0.531247138977
0.362357705832
0.385632872581
0.325594484806
0.429426431656
0.387846678495
0.287292361259
0.447445005178
0.359962910414
0.526032626629
0.27668055892
0.297804176807
0.58843266964
0.227753788233
0.560424745083
0.410547018051
0.473347395658
0.594777822495
0.368570238352
0.186003193259
0.583290874958
0.295889824629
0.372171133757
0.315342605114
0.386635124683
0.472864121199
0.31255659461
0.430758982897
0.335745692253
0.119291722775
0.39881002903
0.227562561631
0.341222494841
0.41699936986
0.452226251364
0.473078131676
0.374760717154
0.585971951485
0.248317733407
0.249506294727
0.484278559685
0.355971992016
0.505988240242
0.201647624373
0.346362143755
0.372538000345
0.563991487026
0.372753232718
0.397789299488
0.32127147913
0.458958089352
0.389364600182
0.316454142332
0.443072348833
0.369142979383
0.565552175045
0.284475505352
0.271214693785
0.516066193581
0.221146807075
0.506680965424
0.43185210228
0.35057502985
0.53932261467
0.329305559397
0.222864985466
0.650588095188
0.318174809217
0.416771709919
0.332866430283
0.36585482955
0.443531274796
0.330115973949
0.481394797564
0.336772084236
0.124554350972
0.381350874901
0.228581562638
0.312407106161
0.414382100105
0.458250492811
0.392010271549
0.341898560524
0.596556782722
0.25836572051
0.234174773097
0.57205426693
0.278136730194
0.524736583233
0.235495135188
0.435915142298
0.38582444191
0.57324385643
0.381092846394
0.467189699411
0.348959773779
0.474900901318
0.416560590267
0.315000623465
0.484664618969
0.410413831472
0.576996445656
0.272325217724
0.25926682353
0.575057327747
0.231306478381
0.560904741287
0.493828594685
0.363768130541
0.556784152985
0.399119883776
0.203033179045
0.64386677742
0.312055140734
0.405140072107
0.310575067997
0.336898624897
0.476403236389
0.350903242826
0.424486160278
0.327096700668
0.11166869849
0.409906536341
0.218200743198
0.35055577755
0.436389237642
0.459891349077
0.408530533314
0.392847925425
0.611474812031
0.291063189507
0.277947098017
0.51488161087
0.272097319365
0.479365855455
0.217436164618
0.370988458395
0.354733586311
0.524891197681
0.348574757576
0.396382570267
0.323022127151
0.425119549036
0.388390958309
0.312892317772
0.508395791054
0.411297023296
0.587329268456
0.306519895792
0.248143494129
0.531919181347
0.212213784456
0.511332035065
0.438988536596
0.406216263771
0.515002131462
0.38342499733
0.196902275085
0.566824436188
0.294412583113
0.366567313671
0.305353999138
0.369359523058
0.423437148333
0.334663927555
0.440186321735
0.332750767469
0.130117818713
0.362520605326
0.231525883079
0.337984859943
0.458351522684
0.428562998772
0.421367406845
0.353749632835
0.621883571148
0.263176321983
0.242685809731
0.536832809448
0.308631837368
0.530733168125
0.22436273098
0.345681607723
0.436101347208
0.542291343212
0.404899209738
0.453503042459
0.347414553165
0.470927834511
0.405495226383
0.344788849354
0.481459915638
0.388393640518
0.509926855564
0.280492842197
0.295632809401
0.496836900711
0.2283564955
0.489576518536
0.390662759542
0.314610123634
0.496746301651
0.356255412102
0.184814453125
0.654813945293
0.329078167677
0.401049494743
0.3212672472
0.393890976906
0.444059967995
0.325507432222
0.448956310749
0.358112841845
0.136674135923
0.375135570765
0.231373876333
0.339189767838
0.399502933025
0.440882176161
0.43214404583
0.379576683044
0.646061301231
0.274162530899
0.251969635487
0.527169167995
0.254289418459
0.552397668362
0.234809949994
0.344625920057
0.388218909502
0.538394629955
0.376393735409
0.375391930342
0.329196959734
0.482636332512
0.408499330282
0.33918607235
0.479189693928
0.365188330412
0.499241530895
0.286216914654
0.290739089251
0.477624922991
0.217662513256
0.491665005684
0.372631669044
0.355478197336
0.480279505253
0.404093235731
0.21258354187
0.54753857851
0.285046219826
0.349515646696
0.283972412348
0.373096227646
0.440549075603
0.345406234264
0.443614721298
0.325781792402
0.127927452326
0.367655336857
0.255625814199
0.357467144728
0.451808571815
0.428276628256
0.511704981327
0.34861060977
0.722000062466
0.290679335594
0.366093277931
0.585036277771
0.315044939518
0.559088408947
0.214876309037
0.380625128746
0.40932777524
0.610859274864
0.366380572319
0.381704479456
0.31779679656
0.499126434326
0.465570688248
0.332539439201
0.531620323658
0.493557393551
0.532926738262
0.316912949085
0.285583049059
0.65582627058
0.247323736548
0.478966683149
0.53654062748
0.318549662828
0.536678671837
0.404629200697
0.252750694752
0.637503445148
0.367745548487
0.342386424541
0.359268069267
0.333516299725
0.471595883369
0.35817784071
0.435932070017
0.352533876896
0.145192652941
0.386948943138
0.219222962856
0.355116397142
0.422283560038
0.426411777735
0.393750995398
0.332233190536
0.58875054121
0.262912184
0.283200979233
0.474411398172
0.296216845512
0.518198788166
0.208324149251
0.374051898718
0.392484843731
0.536382436752
0.402154684067
0.36292797327
0.316420853138
0.469918519258
0.391267687082
0.308048278093
0.464050292969
0.397985994816
0.509885251522
0.261935353279
0.258141130209
0.602916657925
0.258789926767
0.528056561947
0.396807819605
0.351248055696
0.532253205776
0.340372473001
0.208176612854
0.580591678619
0.265484809875
0.380015552044
0.293514043093
0.33866161108
0.429697185755
0.349580228329
0.420284867287
0.352523118258
0.123312167823
0.363344848156
0.195448875427
0.331981122494
0.488282591105
0.509833991528
0.477845609188
0.396109938622
0.64044713974
0.236534655094
0.280475258827
0.556375980377
0.321300774813
0.536967933178
0.286415278912
0.381256014109
0.473721623421
0.541676163673
0.360874891281
0.402484238148
0.360523879528
0.446542143822
0.474393546581
0.311929792166
0.499819725752
0.356249034405
0.471466451883
0.269519716501
0.265686750412
0.536203026772
0.208507150412
0.470964729786
0.392331719398
0.304233849049
0.430452853441
0.314110100269
0.192066937685
0.554989337921
0.263008147478
0.343192338943
0.285826653242
0.34966468811
0.432843774557
0.316702097654
0.414011538029
0.308649837971
0.121533699334
0.351165860891
0.218553125858
0.339222043753
0.423098027706
0.406238019466
0.439393550158
0.328014612198
0.572708368301
0.292614847422
0.265898525715
0.524243175983
0.368453472853
0.517100155354
0.316388428211
0.334751039743
0.535622358322
0.716006755829
0.566862642765
0.407382160425
0.342751532793
0.489214718342
0.441632390022
0.353799551725
0.482520520687
0.434061557055
0.520517706871
0.259589254856
0.306207418442
0.543916761875
0.23413066566
0.475095510483
0.395680785179
0.315476357937
0.471225231886
0.350535303354
0.191900789738
0.568789660931
0.278638780117
0.366622209549
0.297029197216
0.35603249073
0.440858602524
0.316434860229
0.429850667715
0.32194930315
0.116936795413
0.405357509851
0.203720390797
0.346116930246
0.411434262991
0.454140901566
0.43451666832
0.392250299454
0.63444018364
0.268005222082
0.233609080315
0.491205751896
0.362593382597
0.654920637608
0.230031013489
0.343261212111
0.411258101463
0.566728711128
0.372049063444
0.385869294405
0.337996631861
0.462080687284
0.439045786858
0.332444339991
0.466828584671
0.360668838024
0.543089926243
0.296961784363
0.290267825127
0.506150007248
0.199557453394
0.501873910427
0.358145177364
0.332013010979
0.466012269258
0.343865424395
0.197552457452
0.566326498985
0.253634721041
0.359423220158
0.278366476297
0.352354645729
0.422451287508
0.322998464108
0.44408389926
0.314753770828
0.122925966978
0.406505972147
0.225187316537
0.317956149578
0.409063756466
0.433927237988
0.392335176468
0.325426191092
0.608805775642
0.291610121727
0.230495199561
0.611612141132
0.286634087563
0.528015375137
0.192814067006
0.337763816118
0.360606700182
0.574280381203
0.37954044342
0.418419748545
0.318096935749
0.436160504818
0.366798788309
0.303698837757
0.466922104359
0.377303391695
0.535882651806
0.333388715982
0.279044657946
0.575131475925
0.294931173325
0.510082304478
0.5305595994
0.380627512932
0.557161450386
0.359756112099
0.207256376743
0.585401833057
0.266000211239
0.350342512131
0.289099574089
0.369996994734
0.457815080881
0.346525758505
0.409066200256
0.314251691103
0.124557875097
0.374258190393
0.233197554946
0.330854326487
0.407509982586
0.424286335707
0.388184696436
0.339101552963
0.609552562237
0.268702477217
0.222433790565
0.486390113831
0.258891880512
0.453258961439
0.225299626589
0.334707915783
0.353125393391
0.532090306282
0.464156270027
0.373262643814
0.316857546568
0.488355457783
0.405267417431
0.307176828384
0.411375433207
0.357567936182
0.484160929918
0.342978298664
0.365919500589
0.535727322102
0.213605046272
0.499245077372
0.431075662374
0.373443454504
0.484738886356
0.388844370842
0.183958172798
0.54541105032
0.274164617062
0.309633344412
0.292642205954
0.393931090832
0.405588448048
0.386506676674
0.419605612755
0.334896117449
0.153550446033
0.360779255629
0.241790413857
0.368681192398
0.471489995718
0.419448316097
0.41312110424
0.360357791185
0.624208748341
0.283023327589
0.208456039429
0.605787336826
0.285499215126
0.597110152245
0.211072847247
0.365694969893
0.385659396648
0.548271775246
0.43542611599
0.410515069962
0.347843617201
0.471280366182
0.422494739294
0.355182558298
0.45523750782
0.390786617994
0.456531107426
0.255937606096
0.281036615372
0.566991508007
0.209695085883
0.4919885993
0.376846462488
0.294463038445
0.43046054244
0.329295963049
0.191625714302
0.532571673393
0.243414610624
0.337006449699
0.295436710119
0.366357713938
0.488406538963
0.407550811768
0.432707518339
0.350686937571
0.121022947133
0.367300719023
0.224991977215
0.338203728199
0.489399731159
0.541852414608
0.452598541975
0.435992360115
0.615535736084
0.358034282923
0.265526264906
0.476240605116
0.262457758188
0.459656596184
0.231697365642
0.329302370548
0.377287209034
0.540716767311
0.393779665232
0.403830647469
0.312468141317
0.440661072731
0.360241383314
0.319466292858
0.442416340113
0.370793223381
0.487968206406
0.322707444429
0.274400353432
0.485416799784
0.22643750906
0.497200578451
0.357736617327
0.323684990406
0.447191148996
0.313297778368
0.177611470222
0.577237308025
0.262779176235
0.349837720394
0.284041315317
0.352842479944
0.4199026227
0.327941030264
0.432339161634
0.307867825031
0.124947093427
0.36776933074
0.226002305746
0.320916473866
0.428827673197
0.413680255413
0.41177302599
0.358390122652
0.606384336948
0.298470884562
0.254994899035
0.471605449915
0.275532722473
0.514656126499
0.20798663795
0.356618374586
0.352315664291
0.532673001289
0.348094075918
0.372614502907
0.324341058731
0.40940323472
0.367843091488
0.277410268784
0.426748096943
0.400983691216
0.596708416939
0.286699950695
0.268822312355
0.486932188272
0.238730564713
0.474018782377
0.383191466331
0.287487864494
0.463968962431
0.352530360222
0.193796038628
0.547277510166
0.253346413374
0.332357406616
0.304010242224
0.344315826893
0.437590897083
0.342784762383
0.450828254223
0.308079987764
0.162664487958
0.448281943798
0.210597380996
0.370900064707
0.453984081745
0.504872977734
0.51566773653
0.36825850606
0.677318513393
0.274942576885
0.22565741837
0.539247810841
0.259307742119
0.582354605198
0.182831153274
0.360098183155
0.363477438688
0.565889358521
0.35520747304
0.451381921768
0.312081098557
0.440857231617
0.389314353466
0.31618013978
0.417684704065
0.4516890347
0.513560175896
0.33851402998
0.249686151743
0.595177054405
0.194058150053
0.467604666948
0.435573458672
0.308533638716
0.454664349556
0.331679880619
0.205232694745
0.624659478664
0.252927958965
0.357428252697
0.322308123112
0.342530965805
0.46769374609
0.396841913462
0.468606412411
0.33499866724
0.140310242772
0.359337240458
0.221758231521
0.377535015345
0.493270844221
0.411192059517
0.447256684303
0.346186488867
0.679522752762
0.259195894003
0.244701191783
0.50418561697
0.289656311274
0.498435050249
0.214420750737
0.312487214804
0.393067330122
0.520923912525
0.348668456078
0.371997535229
0.319116681814
0.411650776863
0.355503052473
0.292205572128
0.432939022779
0.369209736586
0.47721388936
0.28410410881
0.271033138037
0.466474831104
0.208540648222
0.467733800411
0.367807120085
0.336085736752
0.457245916128
0.36798119545
0.16284301877
0.557937383652
0.246683418751
0.364614397287
0.281847804785
0.35519400239
0.441376656294
0.353042602539
0.468185037374
0.307553082705
0.125161036849
0.353522151709
0.202780529857
0.309152036905
0.417047947645
0.424822121859
0.397454500198
0.339086443186
0.605135142803
0.262216836214
0.222302734852
0.498909294605
0.241830304265
0.482514768839
0.202964514494
0.32601082325
0.377765208483
0.584034323692
0.398125141859
0.382800221443
0.324702262878
0.4343123734
0.369939893484
0.290085226297
0.396211773157
0.331080287695
0.484470754862
0.296538949013
0.262364774942
0.445669710636
0.184707731009
0.484127283096
0.363347619772
0.288814306259
0.461242586374
0.327916502953
0.176198899746
0.544302582741
0.261449873447
0.378561705351
0.29164364934
0.373297333717
0.476355046034
0.343249022961
0.448740839958
0.346195816994
0.16535872221
0.343543708324
0.312175661325
0.328599691391
0.460981816053
0.472251296043
0.450662970543
0.326528549194
0.623906910419
0.260553687811
0.247676461935
0.504587471485
0.262854456902
0.456305682659
0.194349214435
0.330857247114
0.382609009743
0.544241964817
0.436216652393
0.360435634851
0.380018413067
0.42965644598
0.437952160835
0.334913104773
0.440082460642
0.353681176901
0.506796717644
0.263362318277
0.307912528515
0.480544537306
0.198849275708
0.477925181389
0.370134919882
0.365241080523
0.515226900578
0.333785772324
0.190737709403
0.565090656281
0.279462486506
0.334357857704
0.281697362661
0.344098865986
0.446882516146
0.384899020195
0.452734947205
0.302602469921
0.143663525581
0.355994135141
0.240591794252
0.30861723423
0.40490218997
0.396412342787
0.424080133438
0.329115837812
0.648317098618
0.297962754965
0.274821788073
0.508904278278
0.252206712961
0.508090794086
0.211486205459
0.355278372765
0.344414830208
0.51262742281
0.363684684038
0.368698894978
0.305694043636
0.446186363697
0.419364541769
0.332390964031
0.465421676636
0.424507260323
0.526904046535
0.259003520012
0.290597319603
0.500343680382
0.176818758249
0.482296526432
0.399034231901
0.372790366411
0.500851511955
0.33319580555
0.20633007586
0.547150373459
0.276060014963
0.321783304214
0.293402552605
0.348655700684
0.433688402176
0.315846085548
0.403038591146
0.341033637524
0.113359414041
0.341428458691
0.202162966132
0.319133847952
0.42980992794
0.404595941305
0.418390870094
0.35187420249
0.633434772491
0.334120869637
0.227279514074
0.478897690773
0.270086050034
0.436123967171
0.240534707904
0.328980475664
0.359792858362
0.587285518646
0.337010473013
0.38040626049
0.337853819132
0.468197733164
0.378985524178
0.321002811193
0.404530107975
0.364248365164
0.498450040817
0.269289791584
0.268118023872
0.437972605228
0.19391271472
0.45673802495
0.394526332617
0.315383821726
0.425665825605
0.314291238785
0.158637136221
0.546166956425
0.286617398262
0.387411892414
0.283554077148
0.352842479944
0.38170298934
0.310426861048
0.44573828578
0.30157366395
0.130874082446
0.390508562326
0.19939224422
0.338518857956
0.395858407021
0.471047371626
0.426152825356
0.364195257425
0.628696322441
0.296758949757
0.306515097618
0.4801440835
0.257046848536
0.466487050056
0.270904630423
0.311117619276
0.388464838266
0.540892004967
0.342630982399
0.376619189978
0.320504099131
0.411347568035
0.381750702858
0.284777343273
0.462214201689
0.34542965889
0.513068675995
0.273952394724
0.32468482852
0.492278516293
0.194016471505
0.472394227982
0.33915951848
0.310807734728
0.440022349358
0.310587882996
0.179390147328
0.559058964252
0.255321145058
0.35906752944
0.288237631321
0.320356637239
0.408105492592
0.307973116636
0.407378226519
0.300571769476
0.135436192155
0.37240973115
0.238299459219
0.295387536287
0.452017664909
0.406945645809
0.387638628483
0.318476557732
0.558904767036
0.248374849558
0.22231349349
0.462114065886
0.263104468584
0.469292551279
0.182938113809
0.32932394743
0.331598728895
0.496250063181
0.33675122261
0.391824960709
0.312980830669
0.42175167799
0.356494367123
0.291309177876
0.40930557251
0.330267727375
0.448757529259
0.272231459618
0.261226266623
0.478843986988
0.218933224678
0.482271283865
0.352736502886
0.294973284006
0.427147954702
0.275484859943
0.16295298934
0.53686851263
0.267437070608
0.305041909218
0.28162163496
0.327826738358
0.416442900896
0.352757960558
0.429025411606
0.317342847586
0.125060126185
0.350178986788
0.226329788566
0.327187240124
0.441655129194
0.394113540649
0.414922624826
0.335271924734
0.556232631207
0.243421211839
0.213632658124
0.502906322479
0.279187858105
0.497167468071
0.186207309365
0.336612164974
0.366444855928
0.506554424763
0.377725511789
0.414733111858
0.315901219845
0.558260321617
0.373214989901
0.322482824326
0.529119729996
0.442052602768
0.543610930443
0.311135858297
0.271734267473
0.543469488621
0.191436618567
0.473054498434
0.366451859474
0.304812818766
0.398315727711
0.351548343897
0.191956028342
0.563864946365
0.282996624708
0.330555349588
0.285714060068
0.36254298687
0.445408523083
0.334976047277
0.379659056664
0.303806126118
0.135640397668
0.378997117281
0.232738435268
0.313800930977
0.394299685955
0.384755700827
0.420065075159
0.303731352091
0.567103624344
0.25345158577
0.219177365303
0.478356748819
0.22261287272
0.444140553474
0.177773967385
0.364940196276
0.358247309923
0.605480909348
0.368033498526
0.397529512644
0.308473944664
0.458559125662
0.382555156946
0.319685101509
0.451987236738
0.368096709251
0.485756009817
0.268734484911
0.263404995203
0.496183305979
0.202149987221
0.481107622385
0.380956739187
0.299278825521
0.426168680191
0.308137714863
0.18312086165
0.545871853828
0.272043943405
0.411304175854
0.313298791647
0.365775287151
0.40801987052
0.331521391869
0.420592546463
0.30623576045
0.127062052488
0.342048346996
0.212487637997
0.314768522978
0.407604217529
0.394955068827
0.4077013731
0.3206987679
0.577054142952
0.250264793634
0.219861909747
0.464650839567
0.226463168859
0.433004409075
0.205678716302
0.312919139862
0.33259627223
0.520563960075
0.408869087696
0.355805367231
0.318225264549
0.434360384941
0.434296756983
0.298773854971
0.450001060963
0.380076706409
0.509209632874
0.274236023426
0.267449676991
0.466702878475
0.20102609694
0.583889067173
0.366434931755
0.342644423246
0.469541460276
0.285211771727
0.166900709271
0.616501152515
0.238247320056
0.332443416119
0.30075442791
0.370382577181
0.455209612846
0.373817026615
0.572856426239
0.317622959614
0.108718402684
0.395901858807
0.206978470087
0.319940388203
0.420405805111
0.435025572777
0.379982709885
0.312708705664
0.567851960659
0.237534865737
0.227857336402
0.558898985386
0.228723347187
0.453364104033
0.197038039565
0.366306304932
0.328924864531
0.553971409798
0.370739519596
0.489080309868
0.324045449495
0.503262758255
0.39804276824
0.299900144339
0.454419732094
0.361083596945
0.434677839279
0.264599561691
0.309980034828
0.42455291748
0.22036601603
0.499299824238
0.398813962936
0.420862287283
0.49890846014
0.343191027641
0.204862102866
0.532975435257
0.256776243448
0.314715772867
0.284196674824
0.321292281151
0.4072932899
0.294161915779
0.44580578804
0.328673630953
0.115149520338
0.342030256987
0.2093898803
0.297158002853
0.404873132706
0.39397829771
0.371163636446
0.312446087599
0.560811758041
0.232774868608
0.223072350025
0.483716934919
0.2158228755
0.426609963179
0.173790320754
0.302041292191
0.332494199276
0.499394923449
0.336685419083
0.377106100321
0.317882925272
0.39913380146
0.352142423391
0.298394560814
0.420509874821
0.341606676579
0.457728475332
0.314515978098
0.258321464062
0.481697231531
0.19989335537
0.494489699602
0.357624351978
0.291919440031
0.415186315775
0.286902815104
0.189293667674
0.53823363781
0.244181409478
0.308162242174
0.273880064487
0.346605300903
0.407871067524
0.288812607527
0.406194031239
0.297239363194
0.116994015872
0.340011626482
0.209637358785
0.3143273592
0.4456820786
0.392595142126
0.387229532003
0.297236084938
0.54481202364
0.262733876705
0.210871770978
0.476880222559
0.194351688027
0.447701901197
0.172185942531
0.310280233622
0.365120887756
0.507752358913
0.345451056957
0.371826767921
0.297340482473
0.451703637838
0.382304698229
0.317748188972
0.411235719919
0.371958076954
0.444654196501
0.249616444111
0.264386445284
0.484603315592
0.184277892113
0.503495156765
0.339076757431
0.267515867949
0.447246134281
0.292070925236
0.168643459678
0.653015851974
0.296677619219
0.298522800207
0.310946106911
0.339823693037
0.396686017513
0.302097916603
0.388722538948
0.306445032358
0.120606251061
0.382485300303
0.190470069647
0.318875014782
0.398812025785
0.436972588301
0.36959835887
0.317286342382
0.548377215862
0.233062326908
0.256588637829
0.521041750908
0.21437163651
0.454466253519
0.190712541342
0.312294989824
0.346847236156
0.473268955946
0.332261174917
0.344693481922
0.311714529991
0.533671021461
0.414227664471
0.328541576862
0.396572500467
0.344511806965
0.480462729931
0.284690409899
0.262045323849
0.45748642087
0.219438895583
0.480230987072
0.353548645973
0.332734286785
0.458207935095
0.389740675688
0.189924538136
0.566355645657
0.249956741929
0.328354150057
0.286020189524
0.325472027063
0.413273572922
0.361511319876
0.403109312057
0.294954001904
0.135153993964
0.350955188274
0.208855748177
0.287946522236
0.387404292822
0.444530636072
0.397739499807
0.337294191122
0.643452048302
0.245527148247
0.246670424938
0.470727682114
0.197505891323
0.465486288071
0.228564336896
0.330023407936
0.363229453564
0.485385894775
0.346171289682
0.365236520767
0.3144300282
0.417594075203
0.367678642273
0.314188420773
0.465837568045
0.40613591671
0.467780470848
0.272966951132
0.236661151052
0.508565545082
0.216159045696
0.479131013155
0.334150135517
0.318661183119
0.409803003073
0.273126512766
0.167401403189
0.601552307606
0.262979596853
0.494422674179
0.29061204195
0.337203890085
0.401997923851
0.292141884565
0.422468841076
0.30989420414
0.170097410679
0.361540138721
0.220989152789
0.301608383656
0.411044150591
0.391670644283
0.452005416155
0.327963829041
0.601088702679
0.249620482326
0.218400880694
0.472371697426
0.218691632152
0.433863818645
0.191289022565
0.337766885757
0.3742172122
0.51778203249
0.336533695459
0.35237634182
0.309433341026
0.411462634802
0.380960345268
0.279651880264
0.471545040607
0.336461365223
0.502825677395
0.266626954079
0.235749453306
0.467276602983
0.184791684151
0.473218202591
0.342881023884
0.284887701273
0.456285983324
0.274424046278
0.163007333875
0.532963693142
0.259865492582
0.308963418007
0.276336014271
0.310576945543
0.385535657406
0.295109033585
0.397554010153
0.300294160843
0.118484973907
0.345291674137
0.20742931962
0.305423974991
0.384734034538
0.464953869581
0.403999865055
0.33792874217
0.588825702667
0.294217199087
0.193936422467
0.502743124962
0.202296316624
0.560346126556
0.224109381437
0.330471754074
0.489383995533
0.740521788597
0.456275701523
0.392941206694
0.316703498363
0.528386712074
0.435191690922
0.353642642498
0.478655815125
0.397121548653
0.465592503548
0.291768491268
0.303559273481
0.571712136269
0.184702217579
0.439870685339
0.445804178715
0.29607129097
0.443194508553
0.300864040852
0.182145446539
0.559577584267
0.239140599966
0.353974074125
0.295529216528
0.3297342062
0.396920740604
0.300397902727
0.391127943993
0.326585322618
0.107351325452
0.331832200289
0.200816437602
0.291317075491
0.388107329607
0.383029550314
0.35614207387
0.315598338842
0.569785296917
0.247457161546
0.253090858459
0.443837076426
0.216810613871
0.477439969778
0.176216244698
0.285434484482
0.322291731834
0.504525244236
0.324068933725
0.344772726297
0.302695035934
0.389533728361
0.450790643692
0.338852703571
0.411755293608
0.343815922737
0.445195496082
0.265803873539
0.263248294592
0.457658648491
0.189360365272
0.469644516706
0.342040240765
0.320181190968
0.425984114408
0.280785888433
0.172961503267
0.516601085663
0.237103849649
0.299308866262
0.26422688365
0.32634806633
0.377566605806
0.286609083414
0.391132265329
0.289133667946
0.122571103275
0.352438569069
0.186869576573
0.300092846155
0.37740829587
0.409991025925
0.394089430571
0.309996128082
0.541082024574
0.261832594872
0.221591487527
0.540747702122
0.230398476124
0.549236536026
0.202337130904
0.312541723251
0.317377775908
0.515998065472
0.501303255558
0.401335448027
0.308948129416
0.415132820606
0.377539992332
0.29790481925
0.433072805405
0.357159078121
0.488043427467
0.261194467545
0.255604416132
0.49928689003
0.192859396338
0.452595710754
0.359789699316
0.308403253555
0.429412454367
0.272460401058
0.162469089031
0.51236307621
0.247260212898
0.326339125633
0.272295147181
0.317170113325
0.374817043543
0.281399667263
0.368761301041
0.29734864831
0.115713983774
0.339997678995
0.200404241681
0.290999859571
0.400599062443
0.439689785242
0.404878377914
0.335474103689
0.54213142395
0.249151498079
0.23908303678
0.511954128742
0.214626535773
0.531809866428
0.253840059042
0.350356280804
0.368850290775
0.531038224697
0.349139094353
0.37393540144
0.304722607136
0.466938197613
0.375498056412
0.307275474072
0.433050960302
0.406698763371
0.535912573338
0.276352345943
0.260504066944
0.453613460064
0.203118115664
0.461841493845
0.349396824837
0.26434135437
0.435448467731
0.298020660877
0.187527745962
0.508938670158
0.236561283469
0.298508137465
0.268488377333
0.326944440603
0.366972655058
0.292860746384
0.466389089823
0.310045272112
0.14694532752
0.347666621208
0.23069447279
0.284458756447
0.413202822208
0.380188137293
0.423236340284
0.333293676376
0.593660414219
0.280712038279
0.22270578146
0.50688803196
0.235428348184
0.535247921944
0.172423154116
0.337216943502
0.359428107738
0.505566716194
0.317180067301
0.414138883352
0.312444239855
0.46481898427
0.353339761496
0.280984759331
0.397593766451
0.320367127657
0.468636631966
0.262149274349
0.258748143911
0.420146405697
0.179767116904
0.437356382608
0.331873625517
0.276463329792
0.433113604784
0.267694056034
0.163877025247
0.492902457714
0.251960039139
0.294332027435
0.271286576986
0.310351729393
0.379011064768
0.292425066233
0.385148227215
0.287336349487
0.114309586585
0.331811517477
0.19695597887
0.281377077103
0.365609973669
0.392467945814
0.37398609519
0.307903289795
0.563709318638
0.257941931486
0.198093891144
0.454528450966
0.245757460594
0.438230961561
0.21731056273
0.289774894714
0.339290857315
0.521999955177
0.441424399614
0.384303063154
0.317624181509
0.450231969357
0.393853604794
0.296233773232
0.417731553316
0.386246860027
0.459251791239
0.318398118019
0.370211988688
0.4198371768
0.17642429471
0.504268407822
0.359168082476
0.281097382307
0.462810814381
0.341057926416
0.181985288858
0.497430115938
0.244705140591
0.293277204037
0.259556561708
0.307430535555
0.456377953291
0.319189459085
0.387991040945
0.298058271408
0.12992721796
0.344756096601
0.206413015723
0.392219007015
0.457080841064
0.419217765331
0.425553888083
0.299237459898
0.539817333221
0.25706756115
0.269381135702
0.459928900003
0.256806492805
0.46056458354
0.196759298444
0.290424317122
0.362644284964
0.478578954935
0.347860097885
0.358722686768
0.328097492456
0.392787843943
0.359992802143
0.272666692734
0.414718896151
0.35302516818
0.472334057093
0.288033127785
0.26139780879
0.468641370535
0.184132769704
0.460795909166
0.336840987206
0.270470708609
0.418743729591
0.274499207735
0.164909154177
0.558575749397
0.251367479563
0.336413115263
0.293179005384
0.319738507271
0.378909885883
0.286633104086
0.371609866619
0.300652623177
0.114206984639
0.319076180458
0.247722268105
0.304461151361
0.356373339891
0.370832413435
0.345424056053
0.281443089247
0.518949985504
0.252686649561
0.21143591404
0.448148727417
0.28404456377
0.519289374352
0.223776251078
0.298956215382
0.321701586246
0.485142201185
0.362760841846
0.399532705545
0.323871165514
0.407059669495
0.347613364458
0.296812653542
0.456482440233
0.355250120163
0.484213471413
0.24179841578
0.250252693892
0.443972319365
0.17996558547
0.503808498383
0.342573463917
0.286801576614
0.417170107365
0.419181227684
0.191786020994
0.543142914772
0.262080729008
0.326130628586
0.302262276411
0.315321713686
0.385426640511
0.297528237104
0.434444189072
0.322096288204
0.127656161785
0.337043911219
0.206602931023
0.289493829012
0.392831712961
0.376174896955
0.350781828165
0.295606911182
0.569565594196
0.242665782571
0.231553405523
0.553081989288
0.202848017216
0.44372138381
0.175583839417
0.287423789501
0.316562265158
0.489659041166
0.351407915354
0.396974653006
0.301304847002
0.47128495574
0.376202821732
0.284846454859
0.408621370792
0.382483363152
0.495487987995
0.269560962915
0.258644014597
0.469301074743
0.176359921694
0.475826710463
0.337646186352
0.304972946644
0.388363718987
0.280167281628
0.202109694481
0.504535496235
0.243504226208
0.290027797222
0.268885910511
0.335786223412
0.36989864707
0.285828232765
0.381556391716
0.291254758835
0.11882186681
0.364238351583
0.197928234935
0.297387391329
0.378415107727
0.377190768719
0.387882113457
0.282028287649
0.534472048283
0.280294328928
0.198930352926
0.492630362511
0.220062792301
0.440782308578
0.170453637838
0.281497389078
0.313893824816
0.505143284798
0.319473266602
0.353736430407
0.30254945159
0.395358681679
0.338976979256
0.311785548925
0.471617430449
0.333758801222
0.437340199947
0.258397549391
0.245173990726
0.402963131666
0.170831590891
0.479711353779
0.357989341021
0.317884504795
0.385641366243
0.308435618877
0.175275027752
0.562267959118
0.255917370319
0.314695000648
0.25782096386
0.321254879236
0.364224255085
0.303002506495
0.359951883554
0.33251568675
0.127663329244
0.352635234594
0.210068151355
0.281018584967
0.35355335474
0.365849882364
0.373678892851
0.306117832661
0.552300930023
0.243284150958
0.212755724788
0.465289771557
0.284703552723
0.449134677649
0.179863736033
0.297720044851
0.318101555109
0.602664709091
0.326972544193
0.364619642496
0.301222205162
0.400534510612
0.339834749699
0.271297156811
0.395593881607
0.302498787642
0.431511491537
0.243223756552
0.321882277727
0.405437767506
0.211637720466
0.611325085163
0.429484248161
0.294936776161
0.471022039652
0.308478713036
0.185498908162
0.639688670635
0.261937320232
0.322887331247
0.284781426191
0.31245559454
0.374397844076
0.2805544734
0.380395591259
0.294937521219
0.110402517021
0.330874294043
0.181609615684
0.307326287031
0.404138207436
0.377712965012
0.34885135293
0.29087805748
0.52488809824
0.245746910572
0.201134756207
0.457388997078
0.230422109365
0.392493903637
0.163172319531
0.277591466904
0.310602039099
0.581547498703
0.332955777645
0.337704747915
0.308511406183
0.423535168171
0.334303289652
0.253516167402
0.405503809452
0.339435428381
0.449073940516
0.303802132607
0.23736692965
0.44563293457
0.217904567719
0.463992536068
0.353458166122
0.28577464819
0.414789587259
0.260610252619
0.183974310756
0.553636133671
0.254783481359
0.312155216932
0.28929194808
0.291649729013
0.381720155478
0.302582502365
0.376390308142
0.335808902979
0.110596053302
0.355241328478
0.196954518557
0.297424465418
0.365068793297
0.408023387194
0.405346363783
0.312217146158
0.675775825977
0.240600049496
0.261935323477
0.484896689653
0.283797293901
0.425729990005
0.206950485706
0.290206998587
0.311013400555
0.534995794296
0.342164039612
0.355727553368
0.304001361132
0.390484154224
0.345909208059
0.280206352472
0.356346487999
0.318926423788
0.410775065422
0.247818544507
0.242101281881
0.399415671825
0.232808873057
0.491191357374
0.39991286397
0.297327965498
0.415749907494
0.269356817007
0.161850884557
0.492427289486
0.242821678519
0.31515827775
0.251726418734
0.314407676458
0.364671051502
0.298150658607
0.356789141893
0.277622193098
0.108611777425
0.325550377369
0.233159676194
0.292202353477
0.359704971313
0.377659261227
0.355503797531
0.288539916277
0.522722005844
0.261476159096
0.282723814249
0.452379375696
0.2230617553
0.424151450396
0.166703343391
0.3158634305
0.328482925892
0.486259758472
0.346697151661
0.395807027817
0.308066576719
0.430475324392
0.346492171288
0.32645958662
0.397544562817
0.320037961006
0.412713885307
0.237446010113
0.273913234472
0.400265425444
0.191272512078
0.445851355791
0.36485055089
0.268805682659
0.440392464399
0.261822044849
0.160185337067
0.506719529629
0.24189466238
0.336748898029
0.258369803429
0.352597743273
0.363891035318
0.275734484196
0.382962197065
0.275429219007
0.111381746829
0.352335751057
0.176397100091
0.282695323229
0.344109833241
0.359248846769
0.351493656635
0.384682685137
0.546167016029
0.228471502662
0.198927387595
0.423897773027
0.216975867748
0.400577306747
0.16430644691
0.277690380812
0.321869850159
0.470756351948
0.32932934165
0.373571485281
0.318795591593
0.414596945047
0.331338584423
0.277537614107
0.447021782398
0.39486938715
0.4560726583
0.243362382054
0.251726508141
0.402554631233
0.181893840432
0.46522757411
0.370792835951
0.275467783213
0.416072845459
0.249650657177
0.185297816992
0.535894930363
0.228944852948
0.309478104115
0.247492671013
0.327115476131
0.373539239168
0.288397789001
0.349104434252
0.275339454412
0.127500712872
0.355220645666
0.185658052564
0.279116243124
0.424251973629
0.398812174797
0.33369281888
0.283187896013
0.519216775894
0.251799076796
0.198217824101
0.464062124491
0.216759383678
0.46455591917
0.163246497512
0.265154421329
0.355585515499
0.463432222605
0.309546768665
0.324832648039
0.317677587271
0.376387327909
0.324549764395
0.270715266466
0.368159413338
0.318859905005
0.392405867577
0.233404278755
0.236763626337
0.431808054447
0.174370348454
0.465546429157
0.333925843239
0.278012156487
0.39477840066
0.28878441453
0.168178498745
0.636509180069
0.267354846001
0.314388662577
0.342215031385
0.332772284746
0.449343413115
0.314509928226
0.380086869001
0.28685259819
0.10401494056
0.353211134672
0.17987652123
0.273486673832
0.341499835253
0.373269736767
0.396562665701
0.275208055973
0.506303429604
0.240463033319
0.202817305923
0.423568487167
0.241620406508
0.415316551924
0.181213781238
0.290078520775
0.333035230637
0.497861295938
0.340317845345
0.317819356918
0.307639151812
0.385785460472
0.341295748949
0.306494265795
0.382434248924
0.30019518733
0.403073817492
0.248711332679
0.228271350265
0.465949863195
0.172498494387
0.449510872364
0.340518444777
0.267215430737
0.374553382397
0.266226053238
0.160528734326
0.504202783108
0.247102126479
0.282839268446
0.254849553108
0.330592304468
0.37096709013
0.279713660479
0.351377636194
0.284928619862
0.109525375068
0.330073475838
0.187116071582
0.27701613307
0.348228543997
